lr-Adam,step,train/loss,epoch,val/loss,val/CER,val/IER,val/DER,val/SER,train/CER,train/IER,train/DER,train/SER
1e-08,0,,,,,,,,,,,
,49,252.58273315429688,0,,,,,,,,,
,99,105.23135375976562,0,,,,,,,,,
,149,169.57302856445312,0,,,,,,,,,
,199,160.97622680664062,0,,,,,,,,,
,249,170.20822143554688,0,,,,,,,,,
,299,155.32086181640625,0,,,,,,,,,
,349,143.68505859375,0,,,,,,,,,
,399,118.4874038696289,0,,,,,,,,,
,449,113.6694564819336,0,,,,,,,,,
,499,180.03802490234375,0,,,,,,,,,
,549,109.30526733398438,0,,,,,,,,,
,599,134.44113159179688,0,,,,,,,,,
,649,127.21476745605469,0,,,,,,,,,
,699,109.45634460449219,0,,,,,,,,,
,743,,0,135.98663330078125,2018.3880615234375,0.018024763092398643,1945.677490234375,72.6924819946289,,,,
,743,,0,,,,,,2002.8023681640625,0.02666735276579857,1931.9776611328125,70.79796600341797
0.00011112,744,,,,,,,,,,,
,749,29.891206741333008,1,,,,,,,,,
,799,4.2698893547058105,1,,,,,,,,,
,849,3.9678847789764404,1,,,,,,,,,
,899,3.664144515991211,1,,,,,,,,,
,949,3.723479747772217,1,,,,,,,,,
,999,3.65104603767395,1,,,,,,,,,
,1049,3.7044882774353027,1,,,,,,,,,
,1099,3.56235408782959,1,,,,,,,,,
,1149,3.404933452606201,1,,,,,,,,,
,1199,3.44802188873291,1,,,,,,,,,
,1249,3.5073423385620117,1,,,,,,,,,
,1299,3.308692455291748,1,,,,,,,,,
,1349,3.465054988861084,1,,,,,,,,,
,1399,3.465721607208252,1,,,,,,,,,
,1449,3.546642780303955,1,,,,,,,,,
,1487,,1,3.435307741165161,100.0,100.0,0.0,0.0,,,,
,1487,,1,,,,,,105.12850189208984,99.54438018798828,5.240958213806152,0.34316757321357727
0.00022223000000000002,1488,,,,,,,,,,,
,1499,3.360863447189331,2,,,,,,,,,
,1549,3.3325719833374023,2,,,,,,,,,
,1599,3.355679512023926,2,,,,,,,,,
,1649,3.439453125,2,,,,,,,,,
,1699,3.335160732269287,2,,,,,,,,,
,1749,3.3372855186462402,2,,,,,,,,,
,1799,3.4270522594451904,2,,,,,,,,,
,1849,3.371107339859009,2,,,,,,,,,
,1899,3.402276039123535,2,,,,,,,,,
,1949,3.4020962715148926,2,,,,,,,,,
,1999,3.3364484310150146,2,,,,,,,,,
,2049,3.307058811187744,2,,,,,,,,,
,2099,3.3590638637542725,2,,,,,,,,,
,2149,3.344736337661743,2,,,,,,,,,
,2199,3.374624252319336,2,,,,,,,,,
,2231,,2,3.3499741554260254,100.0,100.0,0.0,0.0,,,,
,2231,,2,,,,,,100.0,100.0,0.0,0.0
0.00033334,2232,,,,,,,,,,,
,2249,3.3475780487060547,3,,,,,,,,,
,2299,3.4784398078918457,3,,,,,,,,,
,2349,3.297848701477051,3,,,,,,,,,
,2399,3.394512176513672,3,,,,,,,,,
,2449,3.3476836681365967,3,,,,,,,,,
,2499,3.271206855773926,3,,,,,,,,,
,2549,3.3306970596313477,3,,,,,,,,,
,2599,3.5238332748413086,3,,,,,,,,,
,2649,3.3665993213653564,3,,,,,,,,,
,2699,3.8808231353759766,3,,,,,,,,,
,2749,3.343637466430664,3,,,,,,,,,
,2799,3.3515639305114746,3,,,,,,,,,
,2849,3.267347574234009,3,,,,,,,,,
,2899,3.263131618499756,3,,,,,,,,,
,2949,3.3237011432647705,3,,,,,,,,,
,2975,,3,3.3147809505462646,100.0,100.0,0.0,0.0,,,,
,2975,,3,,,,,,100.0,100.0,0.0,0.0
0.00044445,2976,,,,,,,,,,,
,2999,3.3916802406311035,4,,,,,,,,,
,3049,3.243743419647217,4,,,,,,,,,
,3099,3.287367343902588,4,,,,,,,,,
,3149,3.3093132972717285,4,,,,,,,,,
,3199,3.410132884979248,4,,,,,,,,,
,3249,3.305907726287842,4,,,,,,,,,
,3299,3.1901416778564453,4,,,,,,,,,
,3349,3.2624599933624268,4,,,,,,,,,
,3399,3.1886887550354004,4,,,,,,,,,
,3449,3.267824649810791,4,,,,,,,,,
,3499,3.453117847442627,4,,,,,,,,,
,3549,3.1933085918426514,4,,,,,,,,,
,3599,3.539475917816162,4,,,,,,,,,
,3649,3.508368968963623,4,,,,,,,,,
,3699,3.8797895908355713,4,,,,,,,,,
,3719,,4,3.285916328430176,100.0,100.0,0.0,0.0,,,,
,3719,,4,,,,,,100.0,100.0,0.0,0.0
0.00055556,3720,,,,,,,,,,,
,3749,3.205846071243286,5,,,,,,,,,
,3799,3.3428497314453125,5,,,,,,,,,
,3849,3.2555952072143555,5,,,,,,,,,
,3899,3.3008062839508057,5,,,,,,,,,
,3949,3.2776803970336914,5,,,,,,,,,
,3999,3.260496139526367,5,,,,,,,,,
,4049,3.190744400024414,5,,,,,,,,,
,4099,3.3218307495117188,5,,,,,,,,,
,4149,3.243560552597046,5,,,,,,,,,
,4199,3.249176025390625,5,,,,,,,,,
,4249,3.160310983657837,5,,,,,,,,,
,4299,3.13978910446167,5,,,,,,,,,
,4349,3.1310317516326904,5,,,,,,,,,
,4399,3.1559536457061768,5,,,,,,,,,
,4449,3.1577816009521484,5,,,,,,,,,
,4463,,5,3.2301735877990723,100.0,100.0,0.0,0.0,,,,
,4463,,5,,,,,,100.0,100.0,0.0,0.0
0.00066667,4464,,,,,,,,,,,
,4499,3.7849841117858887,6,,,,,,,,,
,4549,3.319422960281372,6,,,,,,,,,
,4599,3.2081241607666016,6,,,,,,,,,
,4649,3.389883518218994,6,,,,,,,,,
,4699,3.226289749145508,6,,,,,,,,,
,4749,3.465115547180176,6,,,,,,,,,
,4799,3.296189069747925,6,,,,,,,,,
,4849,3.2049598693847656,6,,,,,,,,,
,4899,3.1304948329925537,6,,,,,,,,,
,4949,3.18444561958313,6,,,,,,,,,
,4999,3.224660873413086,6,,,,,,,,,
,5049,3.3037617206573486,6,,,,,,,,,
,5099,3.2216134071350098,6,,,,,,,,,
,5149,3.136863946914673,6,,,,,,,,,
,5199,3.182156562805176,6,,,,,,,,,
,5207,,6,3.1739962100982666,100.0,100.0,0.0,0.0,,,,
,5207,,6,,,,,,100.0,100.0,0.0,0.0
0.0007777799999999999,5208,,,,,,,,,,,
,5249,3.1218745708465576,7,,,,,,,,,
,5299,3.3192343711853027,7,,,,,,,,,
,5349,3.1034514904022217,7,,,,,,,,,
,5399,3.3019323348999023,7,,,,,,,,,
,5449,3.7057065963745117,7,,,,,,,,,
,5499,3.408491849899292,7,,,,,,,,,
,5549,3.164745807647705,7,,,,,,,,,
,5599,3.112414836883545,7,,,,,,,,,
,5649,3.20235013961792,7,,,,,,,,,
,5699,3.464478015899658,7,,,,,,,,,
,5749,3.1570582389831543,7,,,,,,,,,
,5799,3.0603866577148438,7,,,,,,,,,
,5849,3.0830984115600586,7,,,,,,,,,
,5899,3.1146440505981445,7,,,,,,,,,
,5949,3.0671439170837402,7,,,,,,,,,
,5951,,7,3.0320370197296143,99.99861145019531,99.99861145019531,0.0,0.0,,,,
,5951,,7,,,,,,100.0,100.0,0.0,0.0
0.0008888899999999999,5952,,,,,,,,,,,
,5999,3.1050353050231934,8,,,,,,,,,
,6049,3.152827739715576,8,,,,,,,,,
,6099,3.148928642272949,8,,,,,,,,,
,6149,2.99320125579834,8,,,,,,,,,
,6199,2.9974374771118164,8,,,,,,,,,
,6249,2.983736991882324,8,,,,,,,,,
,6299,3.295872688293457,8,,,,,,,,,
,6349,3.104102611541748,8,,,,,,,,,
,6399,2.9890737533569336,8,,,,,,,,,
,6449,2.9803218841552734,8,,,,,,,,,
,6499,3.227971076965332,8,,,,,,,,,
,6549,2.8916122913360596,8,,,,,,,,,
,6599,3.125892162322998,8,,,,,,,,,
,6649,2.9320268630981445,8,,,,,,,,,
,6695,,8,2.9190449714660645,99.82391357421875,99.81558990478516,0.0,0.008319121785461903,,,,
,6695,,8,,,,,,99.99483489990234,99.9938735961914,0.0,0.0009678949136286974
0.001,6696,,,,,,,,,,,
,6699,2.9524946212768555,9,,,,,,,,,
,6749,2.9474058151245117,9,,,,,,,,,
,6799,3.0206291675567627,9,,,,,,,,,
,6849,2.865422487258911,9,,,,,,,,,
,6899,2.752037763595581,9,,,,,,,,,
,6949,3.1154446601867676,9,,,,,,,,,
,6999,2.9516639709472656,9,,,,,,,,,
,7049,2.7720608711242676,9,,,,,,,,,
,7099,2.806964159011841,9,,,,,,,,,
,7149,2.8306448459625244,9,,,,,,,,,
,7199,2.8871350288391113,9,,,,,,,,,
,7249,2.774599552154541,9,,,,,,,,,
,7299,2.606412887573242,9,,,,,,,,,
,7349,2.603367805480957,9,,,,,,,,,
,7399,2.7578892707824707,9,,,,,,,,,
,7439,,9,2.5779600143432617,94.1849365234375,93.724609375,0.005546080879867077,0.45477864146232605,,,,
,7439,,9,,,,,,99.19976806640625,99.1730728149414,0.0006432709051296115,0.02605247125029564
0.001,7440,,,,,,,,,,,
,7449,2.8144350051879883,10,,,,,,,,,
,7499,2.728090524673462,10,,,,,,,,,
,7549,2.6610727310180664,10,,,,,,,,,
,7599,2.733151435852051,10,,,,,,,,,
,7649,2.539923667907715,10,,,,,,,,,
,7699,3.1524014472961426,10,,,,,,,,,
,7749,2.631194591522217,10,,,,,,,,,
,7799,2.3953728675842285,10,,,,,,,,,
,7849,2.5547657012939453,10,,,,,,,,,
,7899,2.532653331756592,10,,,,,,,,,
,7949,2.4995973110198975,10,,,,,,,,,
,7999,2.7200543880462646,10,,,,,,,,,
,8049,2.6115877628326416,10,,,,,,,,,
,8099,2.581873655319214,10,,,,,,,,,
,8149,2.420149326324463,10,,,,,,,,,
,8183,,10,2.2205169200897217,64.60768127441406,48.296661376953125,0.7279231548309326,15.583101272583008,,,,
,8183,,10,,,,,,81.5804214477539,73.88813781738281,0.1590443253517151,7.533238887786865
0.000999874243353782,8184,,,,,,,,,,,
,8199,2.735645055770874,11,,,,,,,,,
,8249,2.5224738121032715,11,,,,,,,,,
,8299,2.3999483585357666,11,,,,,,,,,
,8349,2.4396114349365234,11,,,,,,,,,
,8399,2.2829270362854004,11,,,,,,,,,
,8449,2.5185844898223877,11,,,,,,,,,
,8499,2.5456089973449707,11,,,,,,,,,
,8549,2.310175895690918,11,,,,,,,,,
,8599,2.342451333999634,11,,,,,,,,,
,8649,2.567959785461426,11,,,,,,,,,
,8699,2.1979966163635254,11,,,,,,,,,
,8749,2.110201835632324,11,,,,,,,,,
,8799,2.1902759075164795,11,,,,,,,,,
,8849,2.2861008644104004,11,,,,,,,,,
,8899,2.3002216815948486,11,,,,,,,,,
,8927,,11,2.0370912551879883,59.76456832885742,44.99535369873047,0.44368648529052734,14.32552719116211,,,,
,8927,,11,,,,,,69.71988677978516,55.252601623535156,0.4357129633426666,14.031571388244629
0.0009994970367373866,8928,,,,,,,,,,,
,8949,2.2519853115081787,12,,,,,,,,,
,8999,2.482618570327759,12,,,,,,,,,
,9049,2.270695686340332,12,,,,,,,,,
,9099,2.2844934463500977,12,,,,,,,,,
,9149,2.1430230140686035,12,,,,,,,,,
,9199,2.3046176433563232,12,,,,,,,,,
,9249,2.2225687503814697,12,,,,,,,,,
,9299,2.185065746307373,12,,,,,,,,,
,9349,2.1690969467163086,12,,,,,,,,,
,9399,2.1930127143859863,12,,,,,,,,,
,9449,2.344344139099121,12,,,,,,,,,
,9499,1.8856236934661865,12,,,,,,,,,
,9549,2.5172176361083984,12,,,,,,,,,
,9599,2.225228786468506,12,,,,,,,,,
,9649,2.261044979095459,12,,,,,,,,,
,9671,,12,1.9428484439849854,52.951210021972656,33.08098602294922,1.1106027364730835,18.759618759155273,,,,
,9671,,12,,,,,,64.09349060058594,47.090030670166016,0.6548965573310852,16.34856414794922
0.0009988685700857047,9672,,,,,,,,,,,
,9699,2.2147912979125977,13,,,,,,,,,
,9749,2.2979626655578613,13,,,,,,,,,
,9799,2.2401700019836426,13,,,,,,,,,
,9849,2.1714859008789062,13,,,,,,,,,
,9899,2.230971336364746,13,,,,,,,,,
,9949,2.3481507301330566,13,,,,,,,,,
,9999,2.267364501953125,13,,,,,,,,,
,10049,2.179694175720215,13,,,,,,,,,
,10099,2.0178234577178955,13,,,,,,,,,
,10149,2.339341163635254,13,,,,,,,,,
,10199,2.0624618530273438,13,,,,,,,,,
,10249,1.9981379508972168,13,,,,,,,,,
,10299,2.1237130165100098,13,,,,,,,,,
,10349,2.079892873764038,13,,,,,,,,,
,10399,2.000412940979004,13,,,,,,,,,
,10415,,13,1.8703138828277588,55.45387649536133,40.844112396240234,0.45893821120262146,14.150825500488281,,,,
,10415,,13,,,,,,60.7423095703125,42.22840881347656,0.8026964664459229,17.71120262145996
0.0009979891598506218,10416,,,,,,,,,,,
,10449,2.009006977081299,14,,,,,,,,,
,10499,2.307878017425537,14,,,,,,,,,
,10549,1.9064412117004395,14,,,,,,,,,
,10599,2.2039239406585693,14,,,,,,,,,
,10649,2.2409651279449463,14,,,,,,,,,
,10699,2.1634745597839355,14,,,,,,,,,
,10749,2.0226364135742188,14,,,,,,,,,
,10799,2.2325024604797363,14,,,,,,,,,
,10849,1.9850153923034668,14,,,,,,,,,
,10899,1.8419047594070435,14,,,,,,,,,
,10949,2.0908098220825195,14,,,,,,,,,
,10999,2.012516975402832,14,,,,,,,,,
,11049,2.0913074016571045,14,,,,,,,,,
,11099,2.2899131774902344,14,,,,,,,,,
,11149,1.9461649656295776,14,,,,,,,,,
,11159,,14,1.7554562091827393,48.88315963745117,29.56477165222168,1.0218653678894043,18.29652214050293,,,,
,11159,,14,,,,,,58.3840217590332,39.00176239013672,0.9212608933448792,18.46099853515625
0.0009968592488416746,11160,,,,,,,,,,,
,11199,1.8522164821624756,15,,,,,,,,,
,11249,1.9525059461593628,15,,,,,,,,,
,11299,2.205615997314453,15,,,,,,,,,
,11349,2.144320487976074,15,,,,,,,,,
,11399,1.9713667631149292,15,,,,,,,,,
,11449,1.980258822441101,15,,,,,,,,,
,11499,1.9001771211624146,15,,,,,,,,,
,11549,2.0167205333709717,15,,,,,,,,,
,11599,2.0010385513305664,15,,,,,,,,,
,11649,2.0920591354370117,15,,,,,,,,,
,11699,1.9597562551498413,15,,,,,,,,,
,11749,2.1303727626800537,15,,,,,,,,,
,11799,1.770418643951416,15,,,,,,,,,
,11849,2.010880947113037,15,,,,,,,,,
,11899,2.15000581741333,15,,,,,,,,,
,11903,,15,1.761959433555603,46.23213195800781,23.122997283935547,1.9563801288604736,21.152753829956055,,,,
,11903,,15,,,,,,56.05720138549805,35.73629379272461,1.0689465999603271,19.251962661743164
0.0009954794060030834,11904,,,,,,,,,,,
,11949,1.849694013595581,16,,,,,,,,,
,11999,1.8369985818862915,16,,,,,,,,,
,12049,2.0454330444335938,16,,,,,,,,,
,12099,2.0472798347473145,16,,,,,,,,,
,12149,1.9981176853179932,16,,,,,,,,,
,12199,1.800853967666626,16,,,,,,,,,
,12249,1.938140869140625,16,,,,,,,,,
,12299,2.467132091522217,16,,,,,,,,,
,12349,1.9086332321166992,16,,,,,,,,,
,12399,1.8998298645019531,16,,,,,,,,,
,12449,1.9372811317443848,16,,,,,,,,,
,12499,2.0668158531188965,16,,,,,,,,,
,12549,1.7217427492141724,16,,,,,,,,,
,12599,1.8687018156051636,16,,,,,,,,,
,12647,,16,1.699197769165039,47.13198471069336,28.969953536987305,1.0301845073699951,17.13184356689453,,,,
,12647,,16,,,,,,54.8812255859375,34.431331634521484,1.1028310060501099,19.347064971923828
0.0009938503261272714,12648,,,,,,,,,,,
,12649,2.1504299640655518,17,,,,,,,,,
,12699,1.9763195514678955,17,,,,,,,,,
,12749,1.5846960544586182,17,,,,,,,,,
,12799,1.9725204706192017,17,,,,,,,,,
,12849,1.9974815845489502,17,,,,,,,,,
,12899,1.9166996479034424,17,,,,,,,,,
,12949,2.2403757572174072,17,,,,,,,,,
,12999,2.0553717613220215,17,,,,,,,,,
,13049,2.365597724914551,17,,,,,,,,,
,13099,2.060957431793213,17,,,,,,,,,
,13149,1.952006220817566,17,,,,,,,,,
,13199,1.6562080383300781,17,,,,,,,,,
,13249,1.9098533391952515,17,,,,,,,,,
,13299,1.9070394039154053,17,,,,,,,,,
,13349,1.904341459274292,17,,,,,,,,,
,13391,,17,1.6570031642913818,44.30348205566406,22.374277114868164,1.9314227104187012,19.99778175354004,,,,
,13391,,17,,,,,,53.370643615722656,32.94700241088867,1.1670469045639038,19.256595611572266
0.0009919728295050155,13392,,,,,,,,,,,
,13399,1.6757051944732666,18,,,,,,,,,
,13449,1.8244647979736328,18,,,,,,,,,
,13499,2.1097140312194824,18,,,,,,,,,
,13549,2.1860053539276123,18,,,,,,,,,
,13599,1.9337629079818726,18,,,,,,,,,
,13649,1.883562684059143,18,,,,,,,,,
,13699,2.185776948928833,18,,,,,,,,,
,13749,1.8084135055541992,18,,,,,,,,,
,13799,1.8654327392578125,18,,,,,,,,,
,13849,2.210041046142578,18,,,,,,,,,
,13899,1.9908493757247925,18,,,,,,,,,
,13949,1.8021293878555298,18,,,,,,,,,
,13999,1.9550323486328125,18,,,,,,,,,
,14049,1.9643046855926514,18,,,,,,,,,
,14099,1.7642240524291992,18,,,,,,,,,
,14135,,18,1.6309752464294434,44.766578674316406,24.58161735534668,1.5057610273361206,18.679201126098633,,,,
,14135,,18,,,,,,52.15545654296875,31.746379852294922,1.2015767097473145,19.207500457763672
0.0009898478615124062,14136,,,,,,,,,,,
,14149,1.7181127071380615,19,,,,,,,,,
,14199,1.890878677368164,19,,,,,,,,,
,14249,2.0804247856140137,19,,,,,,,,,
,14299,1.9036113023757935,19,,,,,,,,,
,14349,1.7919598817825317,19,,,,,,,,,
,14399,1.9193791151046753,19,,,,,,,,,
,14449,1.7723376750946045,19,,,,,,,,,
,14499,1.8384768962860107,19,,,,,,,,,
,14549,1.782196283340454,19,,,,,,,,,
,14599,1.8924288749694824,19,,,,,,,,,
,14649,1.7480621337890625,19,,,,,,,,,
,14699,1.807083010673523,19,,,,,,,,,
,14749,1.7649707794189453,19,,,,,,,,,
,14799,2.0610764026641846,19,,,,,,,,,
,14849,1.78456449508667,19,,,,,,,,,
,14879,,19,1.609908938407898,44.17314910888672,25.45235252380371,1.3698819875717163,17.350914001464844,,,,
,14879,,19,,,,,,51.467918395996094,31.171661376953125,1.2879146337509155,19.008344650268555
0.000987476492134821,14880,,,,,,,,,,,
,14899,1.6690995693206787,20,,,,,,,,,
,14949,1.5318260192871094,20,,,,,,,,,
,14999,1.945488691329956,20,,,,,,,,,
,15049,1.9157136678695679,20,,,,,,,,,
,15099,1.8038992881774902,20,,,,,,,,,
,15149,1.8264518976211548,20,,,,,,,,,
,15199,1.7522705793380737,20,,,,,,,,,
,15249,1.782926082611084,20,,,,,,,,,
,15299,1.760511040687561,20,,,,,,,,,
,15349,1.8526113033294678,20,,,,,,,,,
,15399,1.9297358989715576,20,,,,,,,,,
,15449,1.72365403175354,20,,,,,,,,,
,15499,1.725561499595642,20,,,,,,,,,
,15549,1.7969918251037598,20,,,,,,,,,
,15599,2.2716379165649414,20,,,,,,,,,
,15623,,20,1.603192925453186,42.52873611450195,20.104543685913086,2.4277968406677246,19.996395111083984,,,,
,15623,,20,,,,,,50.4771842956543,30.21061897277832,1.3508682250976562,18.91569709777832
0.0009848599154281552,15624,,,,,,,,,,,
,15649,1.8239322900772095,21,,,,,,,,,
,15699,1.8060402870178223,21,,,,,,,,,
,15749,1.7029857635498047,21,,,,,,,,,
,15799,1.6411099433898926,21,,,,,,,,,
,15849,1.7790977954864502,21,,,,,,,,,
,15899,1.761005163192749,21,,,,,,,,,
,15949,1.9164763689041138,21,,,,,,,,,
,15999,1.7180730104446411,21,,,,,,,,,
,16049,1.6575403213500977,21,,,,,,,,,
,16099,1.866929054260254,21,,,,,,,,,
,16149,1.7220900058746338,21,,,,,,,,,
,16199,1.7403569221496582,21,,,,,,,,,
,16249,1.9427013397216797,21,,,,,,,,,
,16299,2.645777702331543,21,,,,,,,,,
,16349,1.6949113607406616,21,,,,,,,,,
,16367,,21,1.6108744144439697,44.66536331176758,25.918222427368164,1.2104321718215942,17.53670883178711,,,,
,16367,,21,,,,,,49.91032028198242,29.63082504272461,1.3919893503189087,18.88750457763672
0.0009819994489175788,16368,,,,,,,,,,,
,16399,1.9453320503234863,22,,,,,,,,,
,16449,1.9510207176208496,22,,,,,,,,,
,16499,1.852095603942871,22,,,,,,,,,
,16549,1.7066066265106201,22,,,,,,,,,
,16599,2.022634983062744,22,,,,,,,,,
,16649,1.9089694023132324,22,,,,,,,,,
,16699,1.9648175239562988,22,,,,,,,,,
,16749,1.8360368013381958,22,,,,,,,,,
,16799,1.769760251045227,22,,,,,,,,,
,16849,1.8919591903686523,22,,,,,,,,,
,16899,1.8907694816589355,22,,,,,,,,,
,16949,1.7306818962097168,22,,,,,,,,,
,16999,1.8732465505599976,22,,,,,,,,,
,17049,1.689542293548584,22,,,,,,,,,
,17099,1.6243650913238525,22,,,,,,,,,
,17111,,22,1.5703372955322266,43.984580993652344,27.19659423828125,0.8998516201972961,15.88813591003418,,,,
,17111,,22,,,,,,49.31761932373047,29.186525344848633,1.3654043674468994,18.765689849853516
0.0009788965329341228,17112,,,,,,,,,,,
,17149,1.5655275583267212,23,,,,,,,,,
,17199,2.134153366088867,23,,,,,,,,,
,17249,1.6112775802612305,23,,,,,,,,,
,17299,1.8940656185150146,23,,,,,,,,,
,17349,2.104191780090332,23,,,,,,,,,
,17399,1.9609549045562744,23,,,,,,,,,
,17449,1.7832086086273193,23,,,,,,,,,
,17499,1.6312479972839355,23,,,,,,,,,
,17549,1.6366333961486816,23,,,,,,,,,
,17599,1.6098215579986572,23,,,,,,,,,
,17649,1.7044882774353027,23,,,,,,,,,
,17699,1.6129980087280273,23,,,,,,,,,
,17749,1.638901948928833,23,,,,,,,,,
,17799,1.7909773588180542,23,,,,,,,,,
,17849,1.615865707397461,23,,,,,,,,,
,17855,,23,1.5380573272705078,41.555397033691406,22.374277114868164,1.6527321338653564,17.52838897705078,,,,
,17855,,23,,,,,,48.80085754394531,28.78847885131836,1.364648699760437,18.647727966308594
0.0009755527298894293,17856,,,,,,,,,,,
,17899,1.5201451778411865,24,,,,,,,,,
,17949,1.740021824836731,24,,,,,,,,,
,17999,1.8088433742523193,24,,,,,,,,,
,18049,1.5503360033035278,24,,,,,,,,,
,18099,1.6906194686889648,24,,,,,,,,,
,18149,1.7014967203140259,24,,,,,,,,,
,18199,1.8933978080749512,24,,,,,,,,,
,18249,1.889183521270752,24,,,,,,,,,
,18299,1.8696799278259277,24,,,,,,,,,
,18349,2.0320756435394287,24,,,,,,,,,
,18399,1.8631843328475952,24,,,,,,,,,
,18449,1.79912269115448,24,,,,,,,,,
,18499,1.4827555418014526,24,,,,,,,,,
,18549,2.029294013977051,24,,,,,,,,,
,18599,1.6661590337753296,24,,,,,,,,,
,18599,,24,1.5199551582336426,40.38517379760742,19.54022979736328,2.2336840629577637,18.61126136779785,,,,
,18599,,24,,,,,,47.85811996459961,27.980976104736328,1.3994357585906982,18.477710723876953
0.0009719697234890296,18600,,,,,,,,,,,
,18649,1.6900413036346436,25,,,,,,,,,
,18699,1.6248177289962769,25,,,,,,,,,
,18749,1.6929748058319092,25,,,,,,,,,
,18799,1.6616580486297607,25,,,,,,,,,
,18849,1.720217227935791,25,,,,,,,,,
,18899,1.5936450958251953,25,,,,,,,,,
,18949,1.8701740503311157,25,,,,,,,,,
,18999,1.6780989170074463,25,,,,,,,,,
,19049,1.6215918064117432,25,,,,,,,,,
,19099,1.601902961730957,25,,,,,,,,,
,19149,1.8137481212615967,25,,,,,,,,,
,19199,1.8606376647949219,25,,,,,,,,,
,19249,1.7197661399841309,25,,,,,,,,,
,19299,1.987896203994751,25,,,,,,,,,
,19343,,25,1.5183008909225464,40.55710220336914,20.10593032836914,2.0714612007141113,18.37971305847168,,,,
,19343,,25,,,,,,47.7318115234375,27.666645050048828,1.4188435077667236,18.646324157714844
0.0009681493178845487,19344,,,,,,,,,,,
,19349,1.7833271026611328,26,,,,,,,,,
,19399,1.6412055492401123,26,,,,,,,,,
,19449,1.69124174118042,26,,,,,,,,,
,19499,1.7646595239639282,26,,,,,,,,,
,19549,1.8019652366638184,26,,,,,,,,,
,19599,1.512747049331665,26,,,,,,,,,
,19649,1.6998367309570312,26,,,,,,,,,
,19699,1.7563261985778809,26,,,,,,,,,
,19749,1.5965512990951538,26,,,,,,,,,
,19799,1.7830013036727905,26,,,,,,,,,
,19849,1.6211891174316406,26,,,,,,,,,
,19899,1.8275785446166992,26,,,,,,,,,
,19949,1.6310181617736816,26,,,,,,,,,
,19999,1.6987066268920898,26,,,,,,,,,
,20049,1.8501209020614624,26,,,,,,,,,
,20087,,26,1.4783034324645996,39.33557891845703,20.610624313354492,1.6499590873718262,17.074996948242188,,,,
,20087,,26,,,,,,46.94270324707031,27.225719451904297,1.425696611404419,18.291288375854492
0.0009640934367652599,20088,,,,,,,,,,,
,20099,1.7201954126358032,27,,,,,,,,,
,20149,1.715557336807251,27,,,,,,,,,
,20199,1.7050490379333496,27,,,,,,,,,
,20249,1.684418797492981,27,,,,,,,,,
,20299,1.8658764362335205,27,,,,,,,,,
,20349,1.6410616636276245,27,,,,,,,,,
,20399,1.8589389324188232,27,,,,,,,,,
,20449,1.859062671661377,27,,,,,,,,,
,20499,1.7949116230010986,27,,,,,,,,,
,20549,1.7494785785675049,27,,,,,,,,,
,20599,1.8220733404159546,27,,,,,,,,,
,20649,1.5959980487823486,27,,,,,,,,,
,20699,1.6056139469146729,27,,,,,,,,,
,20749,1.7910845279693604,27,,,,,,,,,
,20799,1.8052750825881958,27,,,,,,,,,
,20831,,27,1.4899705648422241,40.40181350708008,21.785005569458008,1.4489136934280396,17.16789436340332,,,,
,20831,,27,,,,,,46.74417495727539,26.90292739868164,1.4382574558258057,18.40298843383789
0.0009598041223894496,20832,,,,,,,,,,,
,20849,1.7725129127502441,28,,,,,,,,,
,20899,1.6408092975616455,28,,,,,,,,,
,20949,1.739879846572876,28,,,,,,,,,
,20999,1.6536126136779785,28,,,,,,,,,
,21049,1.760404109954834,28,,,,,,,,,
,21099,1.722899079322815,28,,,,,,,,,
,21149,1.8063685894012451,28,,,,,,,,,
,21199,1.8521077632904053,28,,,,,,,,,
,21249,1.8858411312103271,28,,,,,,,,,
,21299,1.697406530380249,28,,,,,,,,,
,21349,1.9845938682556152,28,,,,,,,,,
,21399,1.8584461212158203,28,,,,,,,,,
,21449,1.7684540748596191,28,,,,,,,,,
,21499,1.8311395645141602,28,,,,,,,,,
,21549,1.762101173400879,28,,,,,,,,,
,21575,,28,1.4932235479354858,40.163333892822266,21.086200714111328,1.735923409461975,17.341209411621094,,,,
,21575,,28,,,,,,46.68546676635742,26.933773040771484,1.4507728815078735,18.300918579101562
0.0009552835345560785,21576,,,,,,,,,,,
,21599,1.620152473449707,29,,,,,,,,,
,21649,1.6194884777069092,29,,,,,,,,,
,21699,1.5017446279525757,29,,,,,,,,,
,21749,1.8364014625549316,29,,,,,,,,,
,21799,1.8534066677093506,29,,,,,,,,,
,21849,1.4259471893310547,29,,,,,,,,,
,21899,1.3835930824279785,29,,,,,,,,,
,21949,1.539656162261963,29,,,,,,,,,
,21999,1.5772221088409424,29,,,,,,,,,
,22049,1.586463212966919,29,,,,,,,,,
,22099,1.8523480892181396,29,,,,,,,,,
,22149,1.790531873703003,29,,,,,,,,,
,22199,1.6304004192352295,29,,,,,,,,,
,22249,1.6106781959533691,29,,,,,,,,,
,22299,1.843623161315918,29,,,,,,,,,
,22319,,29,1.4457405805587769,39.08323287963867,20.88099479675293,1.4405945539474487,16.761642456054688,,,,
,22319,,29,,,,,,45.72541427612305,26.355566024780273,1.4602752923965454,17.90957260131836
0.0009505339495172582,22320,,,,,,,,,,,
,22349,1.6775323152542114,30,,,,,,,,,
,22399,1.5952181816101074,30,,,,,,,,,
,22449,1.5496140718460083,30,,,,,,,,,
,22499,1.7787034511566162,30,,,,,,,,,
,22549,1.7417652606964111,30,,,,,,,,,
,22599,1.705613613128662,30,,,,,,,,,
,22649,1.6816291809082031,30,,,,,,,,,
,22699,1.789361596107483,30,,,,,,,,,
,22749,1.5757083892822266,30,,,,,,,,,
,22799,1.7719333171844482,30,,,,,,,,,
,22849,1.6933035850524902,30,,,,,,,,,
,22899,1.7178010940551758,30,,,,,,,,,
,22949,1.774033784866333,30,,,,,,,,,
,22999,1.698506474494934,30,,,,,,,,,
,23049,1.5947270393371582,30,,,,,,,,,
,23063,,30,1.4339791536331177,39.212181091308594,22.279993057250977,1.17160964012146,15.760575294494629,,,,
,23063,,30,,,,,,45.664764404296875,26.26211166381836,1.4470683336257935,17.955583572387695
0.0009455577588320895,23064,,,,,,,,,,,
,23099,1.849426507949829,31,,,,,,,,,
,23149,1.5843555927276611,31,,,,,,,,,
,23199,1.9158782958984375,31,,,,,,,,,
,23249,1.6170165538787842,31,,,,,,,,,
,23299,1.793910264968872,31,,,,,,,,,
,23349,1.6892811059951782,31,,,,,,,,,
,23399,1.346327781677246,31,,,,,,,,,
,23449,1.7070014476776123,31,,,,,,,,,
,23499,1.795448899269104,31,,,,,,,,,
,23549,1.5665757656097412,31,,,,,,,,,
,23599,1.768593192100525,31,,,,,,,,,
,23649,1.760635495185852,31,,,,,,,,,
,23699,1.7922332286834717,31,,,,,,,,,
,23749,1.7834168672561646,31,,,,,,,,,
,23799,1.449587345123291,31,,,,,,,,,
,23807,,31,1.4302529096603394,39.65863800048828,23.285221099853516,1.106443166732788,15.266974449157715,,,,
,23807,,31,,,,,,45.227291107177734,25.9411678314209,1.4675836563110352,17.818540573120117
0.0009403574681624404,23808,,,,,,,,,,,
,23849,1.511468529701233,32,,,,,,,,,
,23899,1.718052625656128,32,,,,,,,,,
,23949,1.7617475986480713,32,,,,,,,,,
,23999,1.4881925582885742,32,,,,,,,,,
,24049,1.696448564529419,32,,,,,,,,,
,24099,1.4691271781921387,32,,,,,,,,,
,24149,1.6903012990951538,32,,,,,,,,,
,24199,1.6591527462005615,32,,,,,,,,,
,24249,1.4879709482192993,32,,,,,,,,,
,24299,1.554173469543457,32,,,,,,,,,
,24349,1.7863233089447021,32,,,,,,,,,
,24399,1.844182014465332,32,,,,,,,,,
,24449,1.6612259149551392,32,,,,,,,,,
,24499,1.7802988290786743,32,,,,,,,,,
,24549,1.587555170059204,32,,,,,,,,,
,24551,,32,1.4234060049057007,37.9656982421875,20.451173782348633,1.4627788066864014,16.05174446105957,,,,
,24551,,32,,,,,,44.884464263916016,25.68048858642578,1.451238751411438,17.752735137939453
0.0009349356960112697,24552,,,,,,,,,,,
,24599,1.6418079137802124,33,,,,,,,,,
,24649,1.6437578201293945,33,,,,,,,,,
,24699,1.6437102556228638,33,,,,,,,,,
,24749,1.5410418510437012,33,,,,,,,,,
,24799,1.5088310241699219,33,,,,,,,,,
,24849,1.6872410774230957,33,,,,,,,,,
,24899,1.566147804260254,33,,,,,,,,,
,24949,1.6174631118774414,33,,,,,,,,,
,24999,1.6884806156158447,33,,,,,,,,,
,25049,1.4761874675750732,33,,,,,,,,,
,25099,1.6745681762695312,33,,,,,,,,,
,25149,1.6844127178192139,33,,,,,,,,,
,25199,1.5268803834915161,33,,,,,,,,,
,25249,1.6778486967086792,33,,,,,,,,,
,25295,,33,1.3993889093399048,37.121307373046875,18.62928581237793,1.7733594179153442,16.718660354614258,,,,
,25295,,33,,,,,,44.43238067626953,25.365676879882812,1.4385406970977783,17.628164291381836
0.0009292951724041319,25296,,,,,,,,,,,
,25299,1.6954443454742432,34,,,,,,,,,
,25349,1.6806358098983765,34,,,,,,,,,
,25399,1.6317907571792603,34,,,,,,,,,
,25449,1.5269238948822021,34,,,,,,,,,
,25499,1.5188419818878174,34,,,,,,,,,
,25549,1.7540433406829834,34,,,,,,,,,
,25599,1.52652907371521,34,,,,,,,,,
,25649,1.5748379230499268,34,,,,,,,,,
,25699,1.6215623617172241,34,,,,,,,,,
,25749,1.51173734664917,34,,,,,,,,,
,25799,1.4423836469650269,34,,,,,,,,,
,25849,1.839131236076355,34,,,,,,,,,
,25899,1.5656027793884277,34,,,,,,,,,
,25949,1.4866238832473755,34,,,,,,,,,
,25999,1.5628000497817993,34,,,,,,,,,
,26039,,34,1.3962626457214355,37.50398635864258,19.50002098083496,1.6499590873718262,16.354005813598633,,,,
,26039,,34,,,,,,43.98912811279297,25.00056266784668,1.4775853157043457,17.51097869873047
0.0009234387375145277,26040,,,,,,,,,,,
,26049,1.7859447002410889,35,,,,,,,,,
,26099,1.4882447719573975,35,,,,,,,,,
,26149,1.466599464416504,35,,,,,,,,,
,26199,1.5202556848526,35,,,,,,,,,
,26249,1.496170163154602,35,,,,,,,,,
,26299,1.7421700954437256,35,,,,,,,,,
,26349,1.5550837516784668,35,,,,,,,,,
,26399,1.755270004272461,35,,,,,,,,,
,26449,1.6081950664520264,35,,,,,,,,,
,26499,1.6827446222305298,35,,,,,,,,,
,26549,1.6492929458618164,35,,,,,,,,,
,26599,1.7007139921188354,35,,,,,,,,,
,26649,1.5498623847961426,35,,,,,,,,,
,26699,1.5719541311264038,35,,,,,,,,,
,26749,1.521073579788208,35,,,,,,,,,
,26783,,35,1.3999245166778564,37.64125061035156,19.50972557067871,1.5944982767105103,16.53702735900879,,,,
,26783,,35,,,,,,43.893714904785156,24.8117618560791,1.5307190418243408,17.55123519897461
0.0009173693402337905,26784,,,,,,,,,,,
,26799,1.5331926345825195,36,,,,,,,,,
,26849,1.8520838022232056,36,,,,,,,,,
,26899,1.6265766620635986,36,,,,,,,,,
,26949,1.5676984786987305,36,,,,,,,,,
,26999,1.5004044771194458,36,,,,,,,,,
,27049,1.5531196594238281,36,,,,,,,,,
,27099,1.7113633155822754,36,,,,,,,,,
,27149,1.670102834701538,36,,,,,,,,,
,27199,1.3872326612472534,36,,,,,,,,,
,27249,1.584509253501892,36,,,,,,,,,
,27299,1.712347388267517,36,,,,,,,,,
,27349,1.5785466432571411,36,,,,,,,,,
,27399,1.359907627105713,36,,,,,,,,,
,27449,1.603140950202942,36,,,,,,,,,
,27499,1.4472951889038086,36,,,,,,,,,
,27527,,36,1.391810417175293,37.47348403930664,20.334705352783203,1.3851337432861328,15.753643035888672,,,,
,27527,,36,,,,,,43.56364822387695,24.849563598632812,1.5240343809127808,17.19005012512207
0.0009110900366862309,27528,,,,,,,,,,,
,27549,1.5531666278839111,37,,,,,,,,,
,27599,1.613187313079834,37,,,,,,,,,
,27649,1.259331464767456,37,,,,,,,,,
,27699,1.5524452924728394,37,,,,,,,,,
,27749,1.5694957971572876,37,,,,,,,,,
,27799,1.6415011882781982,37,,,,,,,,,
,27849,1.5577725172042847,37,,,,,,,,,
,27899,1.6764719486236572,37,,,,,,,,,
,27949,1.528159499168396,37,,,,,,,,,
,27999,1.4663655757904053,37,,,,,,,,,
,28049,1.4577387571334839,37,,,,,,,,,
,28099,1.4075181484222412,37,,,,,,,,,
,28149,1.4507170915603638,37,,,,,,,,,
,28199,1.598456859588623,37,,,,,,,,,
,28249,1.7128498554229736,37,,,,,,,,,
,28271,,37,1.412697672843933,38.758785247802734,21.113929748535156,1.4503002166748047,16.194557189941406,,,,
,28271,,37,,,,,,43.31576156616211,24.660049438476562,1.5295000076293945,17.1262149810791
0.000904603988690286,28272,,,,,,,,,,,
,28299,1.6566438674926758,38,,,,,,,,,
,28349,1.8339216709136963,38,,,,,,,,,
,28399,1.5572665929794312,38,,,,,,,,,
,28449,1.5464084148406982,38,,,,,,,,,
,28499,1.7164678573608398,38,,,,,,,,,
,28549,1.4818644523620605,38,,,,,,,,,
,28599,1.6718974113464355,38,,,,,,,,,
,28649,1.553295373916626,38,,,,,,,,,
,28699,1.5768964290618896,38,,,,,,,,,
,28749,1.500325322151184,38,,,,,,,,,
,28799,1.4732738733291626,38,,,,,,,,,
,28849,1.5687823295593262,38,,,,,,,,,
,28899,1.570990800857544,38,,,,,,,,,
,28949,1.6952369213104248,38,,,,,,,,,
,28999,1.550225019454956,38,,,,,,,,,
,29015,,38,1.3772187232971191,37.19063186645508,19.968664169311523,1.50021493434906,15.721753120422363,,,,
,29015,,38,,,,,,43.05036544799805,24.584945678710938,1.5105730295181274,16.95484733581543
0.0008979144621664494,29016,,,,,,,,,,,
,29049,1.6490569114685059,39,,,,,,,,,
,29099,1.6008260250091553,39,,,,,,,,,
,29149,1.6285496950149536,39,,,,,,,,,
,29199,1.8357818126678467,39,,,,,,,,,
,29249,1.6353131532669067,39,,,,,,,,,
,29299,1.3573553562164307,39,,,,,,,,,
,29349,1.54804527759552,39,,,,,,,,,
,29399,1.7554011344909668,39,,,,,,,,,
,29449,1.6034609079360962,39,,,,,,,,,
,29499,1.5265941619873047,39,,,,,,,,,
,29549,1.732703447341919,39,,,,,,,,,
,29599,1.491408348083496,39,,,,,,,,,
,29649,1.7087128162384033,39,,,,,,,,,
,29699,1.4738149642944336,39,,,,,,,,,
,29749,1.5097496509552002,39,,,,,,,,,
,29759,,39,1.3741381168365479,36.47380065917969,18.734661102294922,1.6291612386703491,16.1099796295166,,,,
,29759,,39,,,,,,42.569766998291016,24.142690658569336,1.4888842105865479,16.938194274902344
0.0008910248254927808,29760,,,,,,,,,,,
,29799,1.7378261089324951,40,,,,,,,,,
,29849,1.6421630382537842,40,,,,,,,,,
,29899,1.876838207244873,40,,,,,,,,,
,29949,1.694702386856079,40,,,,,,,,,
,29999,1.4194800853729248,40,,,,,,,,,
,30049,1.5473949909210205,40,,,,,,,,,
,30099,1.528996467590332,40,,,,,,,,,
,30149,1.453503131866455,40,,,,,,,,,
,30199,1.6170246601104736,40,,,,,,,,,
,30249,1.6083717346191406,40,,,,,,,,,
,30299,1.4446431398391724,40,,,,,,,,,
,30349,1.8878371715545654,40,,,,,,,,,
,30399,1.563375473022461,40,,,,,,,,,
,30449,1.7313657999038696,40,,,,,,,,,
,30499,1.6396191120147705,40,,,,,,,,,
,30503,,40,1.3715134859085083,36.96324157714844,19.597076416015625,1.4170236587524414,15.949142456054688,,,,
,30503,,40,,,,,,42.56406784057617,24.372222900390625,1.4897021055221558,16.7021427154541
0.0008839385478088264,30504,,,,,,,,,,,
,30549,1.6955225467681885,41,,,,,,,,,
,30599,1.6044156551361084,41,,,,,,,,,
,30649,1.351677656173706,41,,,,,,,,,
,30699,1.4340806007385254,41,,,,,,,,,
,30749,1.6218628883361816,41,,,,,,,,,
,30799,1.5226044654846191,41,,,,,,,,,
,30849,1.5079059600830078,41,,,,,,,,,
,30899,1.421877145767212,41,,,,,,,,,
,30949,1.5566853284835815,41,,,,,,,,,
,30999,1.6718392372131348,41,,,,,,,,,
,31049,1.656245231628418,41,,,,,,,,,
,31099,1.5001672506332397,41,,,,,,,,,
,31149,1.5608254671096802,41,,,,,,,,,
,31199,1.443596601486206,41,,,,,,,,,
,31247,,41,1.354438304901123,36.22145462036133,18.49756622314453,1.6887816190719604,16.035106658935547,,,,
,31247,,41,,,,,,42.29650115966797,23.90567970275879,1.5375096797943115,16.853309631347656
0.0008766591972688036,31248,,,,,,,,,,,
,31249,1.3822749853134155,42,,,,,,,,,
,31299,1.502112627029419,42,,,,,,,,,
,31349,1.5487971305847168,42,,,,,,,,,
,31399,1.3848490715026855,42,,,,,,,,,
,31449,1.3365545272827148,42,,,,,,,,,
,31499,1.4802581071853638,42,,,,,,,,,
,31549,1.5703672170639038,42,,,,,,,,,
,31599,1.756130337715149,42,,,,,,,,,
,31649,1.58232843875885,42,,,,,,,,,
,31699,1.5297151803970337,42,,,,,,,,,
,31749,1.6732380390167236,42,,,,,,,,,
,31799,1.6262409687042236,42,,,,,,,,,
,31849,1.4542889595031738,42,,,,,,,,,
,31899,1.62347412109375,42,,,,,,,,,
,31949,1.7471961975097656,42,,,,,,,,,
,31991,,42,1.345625400543213,35.442230224609375,17.636537551879883,1.9744048118591309,15.83128833770752,,,,
,31991,,42,,,,,,42.12308120727539,23.848142623901367,1.465226173400879,16.80971336364746
0.0008691904392449266,31992,,,,,,,,,,,
,31999,1.396450400352478,43,,,,,,,,,
,32049,1.5282011032104492,43,,,,,,,,,
,32099,1.8033757209777832,43,,,,,,,,,
,32149,1.4724887609481812,43,,,,,,,,,
,32199,1.5979056358337402,43,,,,,,,,,
,32249,1.2370069026947021,43,,,,,,,,,
,32299,1.5302677154541016,43,,,,,,,,,
,32349,1.4910809993743896,43,,,,,,,,,
,32399,1.3118966817855835,43,,,,,,,,,
,32449,1.2490434646606445,43,,,,,,,,,
,32499,1.4390759468078613,43,,,,,,,,,
,32549,1.5152239799499512,43,,,,,,,,,
,32599,1.5680534839630127,43,,,,,,,,,
,32649,1.4788298606872559,43,,,,,,,,,
,32699,1.6508716344833374,43,,,,,,,,,
,32735,,43,1.3522175550460815,36.02872848510742,19.368301391601562,1.5140801668167114,15.146347045898438,,,,
,32735,,43,,,,,,41.61936569213867,23.66771125793457,1.5195273160934448,16.432126998901367
0.000861536034481782,32736,,,,,,,,,,,
,32749,1.6070995330810547,44,,,,,,,,,
,32799,1.3608957529067993,44,,,,,,,,,
,32849,1.4662117958068848,44,,,,,,,,,
,32899,1.431361198425293,44,,,,,,,,,
,32949,1.55558443069458,44,,,,,,,,,
,32999,1.49466872215271,44,,,,,,,,,
,33049,1.7416282892227173,44,,,,,,,,,
,33099,1.4725463390350342,44,,,,,,,,,
,33149,1.7832446098327637,44,,,,,,,,,
,33199,1.4864401817321777,44,,,,,,,,,
,33249,1.7439440488815308,44,,,,,,,,,
,33299,1.513584852218628,44,,,,,,,,,
,33349,1.5017434358596802,44,,,,,,,,,
,33399,1.4593415260314941,44,,,,,,,,,
,33449,1.4555636644363403,44,,,,,,,,,
,33479,,44,1.3347030878067017,35.508785247802734,18.455970764160156,1.6083635091781616,15.444449424743652,,,,
,33479,,44,,,,,,41.566864013671875,23.58624839782715,1.5519561767578125,16.428661346435547
0.0008536998372026804,33480,,,,,,,,,,,
,33499,1.7556183338165283,45,,,,,,,,,
,33549,1.4184975624084473,45,,,,,,,,,
,33599,1.7197506427764893,45,,,,,,,,,
,33649,1.42946195602417,45,,,,,,,,,
,33699,1.267462968826294,45,,,,,,,,,
,33749,1.3280380964279175,45,,,,,,,,,
,33799,1.6473891735076904,45,,,,,,,,,
,33849,1.6874208450317383,45,,,,,,,,,
,33899,1.5922563076019287,45,,,,,,,,,
,33949,1.3640025854110718,45,,,,,,,,,
,33999,1.3971712589263916,45,,,,,,,,,
,34049,1.3043131828308105,45,,,,,,,,,
,34099,1.5711908340454102,45,,,,,,,,,
,34149,1.537545919418335,45,,,,,,,,,
,34199,1.524709939956665,45,,,,,,,,,
,34223,,45,1.3274091482162476,35.72508239746094,19.215784072875977,1.4710979461669922,15.038198471069336,,,,
,34223,,45,,,,,,41.133724212646484,23.29888153076172,1.5279171466827393,16.306926727294922
0.0008456857931689388,34224,,,,,,,,,,,
,34249,1.2801882028579712,46,,,,,,,,,
,34299,1.76254141330719,46,,,,,,,,,
,34349,1.361203670501709,46,,,,,,,,,
,34399,1.526461124420166,46,,,,,,,,,
,34449,1.2901785373687744,46,,,,,,,,,
,34499,1.367305040359497,46,,,,,,,,,
,34549,1.4174679517745972,46,,,,,,,,,
,34599,1.4885162115097046,46,,,,,,,,,
,34649,1.3737101554870605,46,,,,,,,,,
,34699,1.451436996459961,46,,,,,,,,,
,34749,1.7531548738479614,46,,,,,,,,,
,34799,1.5186307430267334,46,,,,,,,,,
,34849,1.6048715114593506,46,,,,,,,,,
,34899,1.4639647006988525,46,,,,,,,,,
,34949,1.4230539798736572,46,,,,,,,,,
,34967,,46,1.3362791538238525,35.57672119140625,18.249380111694336,1.6707569360733032,15.656586647033691,,,,
,34967,,46,,,,,,41.253719329833984,23.347166061401367,1.5273303985595703,16.37922477722168
0.0008374979376930711,34968,,,,,,,,,,,
,34999,1.6267902851104736,47,,,,,,,,,
,35049,1.536102533340454,47,,,,,,,,,
,35099,1.624546766281128,47,,,,,,,,,
,35149,1.299938678741455,47,,,,,,,,,
,35199,1.4592243432998657,47,,,,,,,,,
,35249,1.4391839504241943,47,,,,,,,,,
,35299,1.415936827659607,47,,,,,,,,,
,35349,1.698608636856079,47,,,,,,,,,
,35399,1.3227379322052002,47,,,,,,,,,
,35449,1.535853385925293,47,,,,,,,,,
,35499,1.3008003234863281,47,,,,,,,,,
,35549,1.3250068426132202,47,,,,,,,,,
,35599,1.3652286529541016,47,,,,,,,,,
,35649,1.708383321762085,47,,,,,,,,,
,35699,1.641168475151062,47,,,,,,,,,
,35711,,47,1.3221887350082397,35.18849563598633,18.50311279296875,1.5626083612442017,15.12277603149414,,,,
,35711,,47,,,,,,40.84233474731445,23.079402923583984,1.5540751218795776,16.2088565826416
0.0008291403936068863,35712,,,,,,,,,,,
,35749,1.5454552173614502,48,,,,,,,,,
,35799,1.5335049629211426,48,,,,,,,,,
,35849,1.2749710083007812,48,,,,,,,,,
,35899,1.433407187461853,48,,,,,,,,,
,35949,1.4019684791564941,48,,,,,,,,,
,35999,1.4897208213806152,48,,,,,,,,,
,36049,1.5898923873901367,48,,,,,,,,,
,36099,1.4470155239105225,48,,,,,,,,,
,36149,1.3762974739074707,48,,,,,,,,,
,36199,1.50686514377594,48,,,,,,,,,
,36249,1.5062834024429321,48,,,,,,,,,
,36299,1.4935505390167236,48,,,,,,,,,
,36349,1.5417821407318115,48,,,,,,,,,
,36399,1.4105713367462158,48,,,,,,,,,
,36449,1.5404260158538818,48,,,,,,,,,
,36455,,48,1.3211705684661865,35.033206939697266,17.941572189331055,1.735923409461975,15.355711936950684,,,,
,36455,,48,,,,,,40.72920227050781,23.055728912353516,1.5112547874450684,16.16221809387207
0.0008206173691855193,36456,,,,,,,,,,,
,36499,1.45924973487854,49,,,,,,,,,
,36549,1.2651183605194092,49,,,,,,,,,
,36599,1.482811450958252,49,,,,,,,,,
,36649,1.3710174560546875,49,,,,,,,,,
,36699,1.674262285232544,49,,,,,,,,,
,36749,1.4284303188323975,49,,,,,,,,,
,36799,1.5745316743850708,49,,,,,,,,,
,36849,1.6423239707946777,49,,,,,,,,,
,36899,1.5468710660934448,49,,,,,,,,,
,36949,1.4910717010498047,49,,,,,,,,,
,36999,1.7391469478607178,49,,,,,,,,,
,37049,1.6126948595046997,49,,,,,,,,,
,37099,1.3870704174041748,49,,,,,,,,,
,37149,1.7376641035079956,49,,,,,,,,,
,37199,1.5848973989486694,49,,,,,,,,,
,37199,,49,1.3201996088027954,35.56008529663086,18.91213607788086,1.4821901321411133,15.16575813293457,,,,
,37199,,49,,,,,,40.23027801513672,22.797950744628906,1.5002124309539795,15.932113647460938
0.0008119331560284373,37200,,,,,,,,,,,
,37249,1.4020105600357056,50,,,,,,,,,
,37299,1.460033893585205,50,,,,,,,,,
,37349,1.5263773202896118,50,,,,,,,,,
,37399,1.5229227542877197,50,,,,,,,,,
,37449,1.3326759338378906,50,,,,,,,,,
,37499,1.332366704940796,50,,,,,,,,,
,37549,1.267141580581665,50,,,,,,,,,
,37599,1.545600175857544,50,,,,,,,,,
,37649,1.6400748491287231,50,,,,,,,,,
,37699,1.5017529726028442,50,,,,,,,,,
,37749,1.3154540061950684,50,,,,,,,,,
,37799,1.3817989826202393,50,,,,,,,,,
,37849,1.687617301940918,50,,,,,,,,,
,37899,1.457015037536621,50,,,,,,,,,
,37943,,50,1.3139488697052002,34.42452621459961,17.481246948242188,1.8232741355895996,15.120003700256348,,,,
,37943,,50,,,,,,40.287166595458984,22.777130126953125,1.5524808168411255,15.95755672454834
0.0008030921268984896,37944,,,,,,,,,,,
,37949,1.4795763492584229,51,,,,,,,,,
,37999,1.5801937580108643,51,,,,,,,,,
,38049,1.630603313446045,51,,,,,,,,,
,38099,1.55747389793396,51,,,,,,,,,
,38149,1.480987787246704,51,,,,,,,,,
,38199,1.3877193927764893,51,,,,,,,,,
,38249,1.2748968601226807,51,,,,,,,,,
,38299,1.642726182937622,51,,,,,,,,,
,38349,1.3293558359146118,51,,,,,,,,,
,38399,1.4379909038543701,51,,,,,,,,,
,38449,1.571244239807129,51,,,,,,,,,
,38499,1.2920883893966675,51,,,,,,,,,
,38549,1.6417663097381592,51,,,,,,,,,
,38599,1.4913638830184937,51,,,,,,,,,
,38649,1.4578626155853271,51,,,,,,,,,
,38687,,51,1.3049677610397339,35.47273254394531,19.756526947021484,1.2242974042892456,14.491909980773926,,,,
,38687,,51,,,,,,40.077491760253906,22.53754425048828,1.5443429946899414,15.995603561401367
0.0007940987335200902,38688,,,,,,,,,,,
,38699,1.7044379711151123,52,,,,,,,,,
,38749,1.412208080291748,52,,,,,,,,,
,38799,1.582188367843628,52,,,,,,,,,
,38849,1.8382320404052734,52,,,,,,,,,
,38899,1.3960593938827515,52,,,,,,,,,
,38949,1.3611440658569336,52,,,,,,,,,
,38999,1.3713151216506958,52,,,,,,,,,
,39049,1.3508650064468384,52,,,,,,,,,
,39099,1.2189887762069702,52,,,,,,,,,
,39149,1.5609984397888184,52,,,,,,,,,
,39199,1.644831895828247,52,,,,,,,,,
,39249,1.3725006580352783,52,,,,,,,,,
,39299,1.4697575569152832,52,,,,,,,,,
,39349,1.1973795890808105,52,,,,,,,,,
,39399,1.4779242277145386,52,,,,,,,,,
,39431,,52,1.3005173206329346,34.31776428222656,17.238605499267578,1.8801214694976807,15.199034690856934,,,,
,39431,,52,,,,,,39.67776870727539,22.50607681274414,1.4878720045089722,15.683818817138672
0.0007849575043376416,39432,,,,,,,,,,,
,39449,1.574662208557129,53,,,,,,,,,
,39499,1.4572741985321045,53,,,,,,,,,
,39549,1.4398910999298096,53,,,,,,,,,
,39599,1.436036467552185,53,,,,,,,,,
,39649,1.4688785076141357,53,,,,,,,,,
,39699,1.6332967281341553,53,,,,,,,,,
,39749,1.6638667583465576,53,,,,,,,,,
,39799,1.3453319072723389,53,,,,,,,,,
,39849,1.1672096252441406,53,,,,,,,,,
,39899,1.6628957986831665,53,,,,,,,,,
,39949,1.4849766492843628,53,,,,,,,,,
,39999,1.3693444728851318,53,,,,,,,,,
,40049,1.3441779613494873,53,,,,,,,,,
,40099,1.3821742534637451,53,,,,,,,,,
,40149,1.3676730394363403,53,,,,,,,,,
,40175,,53,1.2947007417678833,34.03352737426758,16.97100830078125,1.8412989377975464,15.221219062805176,,,,
,40175,,53,,,,,,39.42784118652344,22.284700393676758,1.534255027770996,15.608887672424316
0.000775673042235325,40176,,,,,,,,,,,
,40199,1.4384047985076904,54,,,,,,,,,
,40249,1.4029767513275146,54,,,,,,,,,
,40299,1.4379379749298096,54,,,,,,,,,
,40349,1.5582705736160278,54,,,,,,,,,
,40399,1.3188632726669312,54,,,,,,,,,
,40449,1.493295669555664,54,,,,,,,,,
,40499,1.4915753602981567,54,,,,,,,,,
,40549,1.3917584419250488,54,,,,,,,,,
,40599,1.2614085674285889,54,,,,,,,,,
,40649,1.302907943725586,54,,,,,,,,,
,40699,1.633459210395813,54,,,,,,,,,
,40749,1.493896484375,54,,,,,,,,,
,40799,1.6474566459655762,54,,,,,,,,,
,40849,1.5472995042800903,54,,,,,,,,,
,40899,1.6258714199066162,54,,,,,,,,,
,40919,,54,1.2939468622207642,34.49939727783203,18.110727310180664,1.6069769859313965,14.781692504882812,,,,
,40919,,54,,,,,,39.522769927978516,22.38306427001953,1.5122040510177612,15.62750244140625
0.0007662500222194103,40920,,,,,,,,,,,
,40949,1.3698886632919312,55,,,,,,,,,
,40999,1.4138010740280151,55,,,,,,,,,
,41049,1.3226802349090576,55,,,,,,,,,
,41099,1.4857124090194702,55,,,,,,,,,
,41149,1.4218790531158447,55,,,,,,,,,
,41199,1.4899070262908936,55,,,,,,,,,
,41249,1.1895842552185059,55,,,,,,,,,
,41299,1.5627624988555908,55,,,,,,,,,
,41349,1.5095460414886475,55,,,,,,,,,
,41399,1.4737547636032104,55,,,,,,,,,
,41449,1.379264235496521,55,,,,,,,,,
,41499,1.2341041564941406,55,,,,,,,,,
,41549,1.4246718883514404,55,,,,,,,,,
,41599,1.3438503742218018,55,,,,,,,,,
,41649,1.4530850648880005,55,,,,,,,,,
,41663,,55,1.2837601900100708,34.05293655395508,17.126298904418945,1.8995327949523926,15.027106285095215,,,,
,41663,,55,,,,,,39.22365951538086,22.34580421447754,1.4804059267044067,15.39744758605957
0.00075669318906425,41664,,,,,,,,,,,
,41699,1.4392071962356567,56,,,,,,,,,
,41749,1.1743379831314087,56,,,,,,,,,
,41799,1.5363303422927856,56,,,,,,,,,
,41849,1.3175617456436157,56,,,,,,,,,
,41899,1.3846219778060913,56,,,,,,,,,
,41949,1.434045672416687,56,,,,,,,,,
,41999,1.3020753860473633,56,,,,,,,,,
,42049,1.2653651237487793,56,,,,,,,,,
,42099,1.6401965618133545,56,,,,,,,,,
,42149,1.4798486232757568,56,,,,,,,,,
,42199,1.5166943073272705,56,,,,,,,,,
,42249,1.4427320957183838,56,,,,,,,,,
,42299,1.3340635299682617,56,,,,,,,,,
,42349,1.6781647205352783,56,,,,,,,,,
,42399,1.4748461246490479,56,,,,,,,,,
,42407,,56,1.2798891067504883,34.296966552734375,18.11211395263672,1.5750869512557983,14.609764099121094,,,,
,42407,,56,,,,,,38.89291763305664,22.020225524902344,1.542842984199524,15.32984733581543
0.0007470073549231411,42408,,,,,,,,,,,
,42449,1.1949962377548218,57,,,,,,,,,
,42499,1.355163812637329,57,,,,,,,,,
,42549,1.437145709991455,57,,,,,,,,,
,42599,1.331064224243164,57,,,,,,,,,
,42649,1.5238244533538818,57,,,,,,,,,
,42699,1.5531498193740845,57,,,,,,,,,
,42749,1.2055562734603882,57,,,,,,,,,
,42799,1.3595805168151855,57,,,,,,,,,
,42849,1.3699181079864502,57,,,,,,,,,
,42899,1.542687177658081,57,,,,,,,,,
,42949,1.5385627746582031,57,,,,,,,,,
,42999,1.2999248504638672,57,,,,,,,,,
,43049,1.4137471914291382,57,,,,,,,,,
,43099,1.3432828187942505,57,,,,,,,,,
,43149,1.247083306312561,57,,,,,,,,,
,43151,,57,1.280367374420166,34.242889404296875,18.05110740661621,1.5834060907363892,14.608377456665039,,,,
,43151,,57,,,,,,38.783634185791016,21.955217361450195,1.5484731197357178,15.279942512512207
0.0007371973969052627,43152,,,,,,,,,,,
,43199,1.3748834133148193,58,,,,,,,,,
,43249,1.362048864364624,58,,,,,,,,,
,43299,1.4009606838226318,58,,,,,,,,,
,43349,1.4532837867736816,58,,,,,,,,,
,43399,1.3708059787750244,58,,,,,,,,,
,43449,1.4457801580429077,58,,,,,,,,,
,43499,1.3088524341583252,58,,,,,,,,,
,43549,1.343986988067627,58,,,,,,,,,
,43599,1.441157341003418,58,,,,,,,,,
,43649,1.268025279045105,58,,,,,,,,,
,43699,1.4061667919158936,58,,,,,,,,,
,43749,1.4966086149215698,58,,,,,,,,,
,43799,1.38631010055542,58,,,,,,,,,
,43849,1.5452334880828857,58,,,,,,,,,
,43895,,58,1.2773175239562988,34.159698486328125,18.751300811767578,1.3338325023651123,14.074566841125488,,,,
,43895,,58,,,,,,39.064334869384766,22.124061584472656,1.532180905342102,15.408093452453613
0.0007272682546199035,43896,,,,,,,,,,,
,43899,1.6772433519363403,59,,,,,,,,,
,43949,1.52994704246521,59,,,,,,,,,
,43999,1.346275806427002,59,,,,,,,,,
,44049,1.435532569885254,59,,,,,,,,,
,44099,1.3214898109436035,59,,,,,,,,,
,44149,1.533821702003479,59,,,,,,,,,
,44199,1.3525474071502686,59,,,,,,,,,
,44249,1.570095419883728,59,,,,,,,,,
,44299,1.4660472869873047,59,,,,,,,,,
,44349,1.4752569198608398,59,,,,,,,,,
,44399,1.594602108001709,59,,,,,,,,,
,44449,1.4801583290100098,59,,,,,,,,,
,44499,1.2227084636688232,59,,,,,,,,,
,44549,1.4991843700408936,59,,,,,,,,,
,44599,1.3502353429794312,59,,,,,,,,,
,44639,,59,1.2891746759414673,33.92676544189453,17.04865264892578,1.9175574779510498,14.960553169250488,,,,
,44639,,59,,,,,,38.56028366088867,21.81305694580078,1.5339372158050537,15.213290214538574
0.0007172249276892202,44640,,,,,,,,,,,
,44649,1.4177192449569702,60,,,,,,,,,
,44699,1.327648639678955,60,,,,,,,,,
,44749,1.4840502738952637,60,,,,,,,,,
,44799,1.3993247747421265,60,,,,,,,,,
,44849,1.5252768993377686,60,,,,,,,,,
,44899,1.445722222328186,60,,,,,,,,,
,44949,1.3479348421096802,60,,,,,,,,,
,44999,1.3350870609283447,60,,,,,,,,,
,45049,1.3534159660339355,60,,,,,,,,,
,45099,1.3715453147888184,60,,,,,,,,,
,45149,1.4768052101135254,60,,,,,,,,,
,45199,1.138414978981018,60,,,,,,,,,
,45249,1.5717129707336426,60,,,,,,,,,
,45299,1.2115726470947266,60,,,,,,,,,
,45349,1.6408326625823975,60,,,,,,,,,
,45383,,60,1.264286994934082,33.70492172241211,17.57969093322754,1.6055904626846313,14.51963996887207,,,,
,45383,,60,,,,,,38.40871810913086,21.761913299560547,1.5372376441955566,15.109567642211914
0.0007070724732307769,45384,,,,,,,,,,,
,45399,1.3213675022125244,61,,,,,,,,,
,45449,1.4428150653839111,61,,,,,,,,,
,45499,1.166416049003601,61,,,,,,,,,
,45549,1.3240928649902344,61,,,,,,,,,
,45599,1.3720026016235352,61,,,,,,,,,
,45649,1.3827648162841797,61,,,,,,,,,
,45699,1.2427918910980225,61,,,,,,,,,
,45749,1.3319928646087646,61,,,,,,,,,
,45799,1.1544969081878662,61,,,,,,,,,
,45849,1.3245320320129395,61,,,,,,,,,
,45899,1.4630975723266602,61,,,,,,,,,
,45949,1.5269899368286133,61,,,,,,,,,
,45999,1.536543846130371,61,,,,,,,,,
,46049,1.4197685718536377,61,,,,,,,,,
,46099,1.2954397201538086,61,,,,,,,,,
,46127,,61,1.259636402130127,33.56904220581055,18.027536392211914,1.4863497018814087,14.055155754089355,,,,
,46127,,61,,,,,,38.20269775390625,21.609573364257812,1.5253854990005493,15.067737579345703
0.0006968160033111347,46128,,,,,,,,,,,
,46149,1.5307496786117554,62,,,,,,,,,
,46199,1.3519694805145264,62,,,,,,,,,
,46249,1.543254017829895,62,,,,,,,,,
,46299,1.2389798164367676,62,,,,,,,,,
,46349,1.458480954170227,62,,,,,,,,,
,46399,1.3986128568649292,62,,,,,,,,,
,46449,1.3189678192138672,62,,,,,,,,,
,46499,1.2356621026992798,62,,,,,,,,,
,46549,1.3108599185943604,62,,,,,,,,,
,46599,1.4619183540344238,62,,,,,,,,,
,46649,1.4959160089492798,62,,,,,,,,,
,46699,1.5021569728851318,62,,,,,,,,,
,46749,1.4086860418319702,62,,,,,,,,,
,46799,1.3298460245132446,62,,,,,,,,,
,46849,1.3466860055923462,62,,,,,,,,,
,46871,,62,1.257707118988037,33.510807037353516,17.618513107299805,1.6305477619171143,14.261747360229492,,,,
,46871,,62,,,,,,37.89094924926758,21.56241798400879,1.4961310625076294,14.83240032196045
0.0006864606823717715,46872,,,,,,,,,,,
,46899,1.441319465637207,63,,,,,,,,,
,46949,1.5180907249450684,63,,,,,,,,,
,46999,1.4093372821807861,63,,,,,,,,,
,47049,1.448810338973999,63,,,,,,,,,
,47099,1.2870067358016968,63,,,,,,,,,
,47149,1.5540122985839844,63,,,,,,,,,
,47199,1.5851497650146484,63,,,,,,,,,
,47249,1.366105556488037,63,,,,,,,,,
,47299,1.1574163436889648,63,,,,,,,,,
,47349,1.336730718612671,63,,,,,,,,,
,47399,1.2764418125152588,63,,,,,,,,,
,47449,1.2071349620819092,63,,,,,,,,,
,47499,1.463165044784546,63,,,,,,,,,
,47549,1.3656755685806274,63,,,,,,,,,
,47599,1.3220524787902832,63,,,,,,,,,
,47615,,63,1.2588309049606323,33.509422302246094,17.191465377807617,1.7525615692138672,14.56539535522461,,,,
,47615,,63,,,,,,37.767330169677734,21.398029327392578,1.5441278219223022,14.825174331665039
0.0006760117246286306,47616,,,,,,,,,,,
,47649,1.3362137079238892,64,,,,,,,,,
,47699,1.5897445678710938,64,,,,,,,,,
,47749,1.2030277252197266,64,,,,,,,,,
,47799,1.3931565284729004,64,,,,,,,,,
,47849,1.2119064331054688,64,,,,,,,,,
,47899,1.356238603591919,64,,,,,,,,,
,47949,1.466403603553772,64,,,,,,,,,
,47999,1.2546777725219727,64,,,,,,,,,
,48049,1.348356008529663,64,,,,,,,,,
,48099,1.2434707880020142,64,,,,,,,,,
,48149,1.4643787145614624,64,,,,,,,,,
,48199,1.4065864086151123,64,,,,,,,,,
,48249,1.448623538017273,64,,,,,,,,,
,48299,1.267359733581543,64,,,,,,,,,
,48349,1.7214233875274658,64,,,,,,,,,
,48359,,64,1.2576600313186646,33.56072235107422,17.442424774169922,1.740082859992981,14.378214836120605,,,,
,48359,,64,,,,,,37.742431640625,21.44748878479004,1.5584423542022705,14.736499786376953
0.0006654743914466059,48360,,,,,,,,,,,
,48399,1.4769103527069092,65,,,,,,,,,
,48449,1.1807763576507568,65,,,,,,,,,
,48499,1.4183688163757324,65,,,,,,,,,
,48549,1.3674668073654175,65,,,,,,,,,
,48599,1.4886454343795776,65,,,,,,,,,
,48649,1.460905909538269,65,,,,,,,,,
,48699,1.475448727607727,65,,,,,,,,,
,48749,1.3000144958496094,65,,,,,,,,,
,48799,1.2754056453704834,65,,,,,,,,,
,48849,1.3781538009643555,65,,,,,,,,,
,48899,1.372422695159912,65,,,,,,,,,
,48949,1.4198967218399048,65,,,,,,,,,
,48999,1.332768201828003,65,,,,,,,,,
,49049,1.3887131214141846,65,,,,,,,,,
,49099,1.2673931121826172,65,,,,,,,,,
,49103,,65,1.2418930530548096,32.92708206176758,16.832355499267578,1.7594941854476929,14.335232734680176,,,,
,49103,,65,,,,,,37.45261001586914,21.20408821105957,1.583461880683899,14.665060043334961
0.0006548539886902862,49104,,,,,,,,,,,
,49149,1.463080644607544,66,,,,,,,,,
,49199,1.297879934310913,66,,,,,,,,,
,49249,1.4488624334335327,66,,,,,,,,,
,49299,1.4417191743850708,66,,,,,,,,,
,49349,1.4488344192504883,66,,,,,,,,,
,49399,1.3702514171600342,66,,,,,,,,,
,49449,1.3524667024612427,66,,,,,,,,,
,49499,1.5153555870056152,66,,,,,,,,,
,49549,1.496091604232788,66,,,,,,,,,
,49599,1.302724838256836,66,,,,,,,,,
,49649,1.4028667211532593,66,,,,,,,,,
,49699,1.292104959487915,66,,,,,,,,,
,49749,1.3591980934143066,66,,,,,,,,,
,49799,1.3436672687530518,66,,,,,,,,,
,49847,,66,1.251891016960144,33.16279220581055,16.8878173828125,1.8010897636413574,14.473884582519531,,,,
,49847,,66,,,,,,37.36886978149414,21.242416381835938,1.5510048866271973,14.575448036193848
0.0006441558640522925,49848,,,,,,,,,,,
,49849,1.489469051361084,67,,,,,,,,,
,49899,1.4466190338134766,67,,,,,,,,,
,49949,1.3697019815444946,67,,,,,,,,,
,49999,1.3966621160507202,67,,,,,,,,,
,50049,1.121126651763916,67,,,,,,,,,
,50099,1.3191274404525757,67,,,,,,,,,
,50149,1.3401539325714111,67,,,,,,,,,
,50199,1.440112829208374,67,,,,,,,,,
,50249,1.4809811115264893,67,,,,,,,,,
,50299,1.3409643173217773,67,,,,,,,,,
,50349,1.2042975425720215,67,,,,,,,,,
,50399,1.348292589187622,67,,,,,,,,,
,50449,1.5061968564987183,67,,,,,,,,,
,50499,1.369171380996704,67,,,,,,,,,
,50549,1.4407211542129517,67,,,,,,,,,
,50591,,67,1.23164701461792,33.261234283447266,18.79566764831543,1.2811447381973267,13.184420585632324,,,,
,50591,,67,,,,,,37.319419860839844,21.282955169677734,1.5615789890289307,14.474884033203125
0.000633385404360554,50592,,,,,,,,,,,
,50599,1.1874146461486816,68,,,,,,,,,
,50649,1.3091652393341064,68,,,,,,,,,
,50699,1.1658263206481934,68,,,,,,,,,
,50749,1.2545534372329712,68,,,,,,,,,
,50799,1.3651983737945557,68,,,,,,,,,
,50849,1.4606242179870605,68,,,,,,,,,
,50899,1.398256778717041,68,,,,,,,,,
,50949,1.3466465473175049,68,,,,,,,,,
,50999,1.247381329536438,68,,,,,,,,,
,51049,1.4411687850952148,68,,,,,,,,,
,51099,1.3144147396087646,68,,,,,,,,,
,51149,1.3641853332519531,68,,,,,,,,,
,51199,1.5744035243988037,68,,,,,,,,,
,51249,1.450260877609253,68,,,,,,,,,
,51299,1.3513222932815552,68,,,,,,,,,
,51335,,68,1.2383309602737427,33.04355239868164,17.507591247558594,1.534877896308899,14.001081466674805,,,,
,51335,,68,,,,,,37.243507385253906,21.164278030395508,1.536868691444397,14.5423583984375
0.0006225480328658779,51336,,,,,,,,,,,
,51349,1.5005942583084106,69,,,,,,,,,
,51399,1.4291352033615112,69,,,,,,,,,
,51449,1.6915504932403564,69,,,,,,,,,
,51499,1.4387184381484985,69,,,,,,,,,
,51549,1.2558640241622925,69,,,,,,,,,
,51599,1.5225589275360107,69,,,,,,,,,
,51649,1.1979291439056396,69,,,,,,,,,
,51699,1.394899606704712,69,,,,,,,,,
,51749,1.1980993747711182,69,,,,,,,,,
,51799,1.2220463752746582,69,,,,,,,,,
,51849,1.1309380531311035,69,,,,,,,,,
,51899,1.3327704668045044,69,,,,,,,,,
,51949,1.3020439147949219,69,,,,,,,,,
,51999,1.301135778427124,69,,,,,,,,,
,52049,1.511997938156128,69,,,,,,,,,
,52079,,69,1.2350614070892334,32.90351104736328,17.575531005859375,1.565381407737732,13.76259994506836,,,,
,52079,,69,,,,,,37.196903228759766,21.2023868560791,1.5516852140426636,14.442831993103027
0.0006116492065111788,52080,,,,,,,,,,,
,52099,1.4190921783447266,70,,,,,,,,,
,52149,1.4204590320587158,70,,,,,,,,,
,52199,1.322740912437439,70,,,,,,,,,
,52249,1.291867971420288,70,,,,,,,,,
,52299,1.4887819290161133,70,,,,,,,,,
,52349,1.3899365663528442,70,,,,,,,,,
,52399,1.2721967697143555,70,,,,,,,,,
,52449,1.2747561931610107,70,,,,,,,,,
,52499,1.3087658882141113,70,,,,,,,,,
,52549,1.306572437286377,70,,,,,,,,,
,52599,1.327140212059021,70,,,,,,,,,
,52649,1.3673032522201538,70,,,,,,,,,
,52699,1.4013125896453857,70,,,,,,,,,
,52749,1.484959602355957,70,,,,,,,,,
,52799,1.2363038063049316,70,,,,,,,,,
,52823,,70,1.2308764457702637,33.175270080566406,18.773483276367188,1.2312300205230713,13.17055606842041,,,,
,52823,,70,,,,,,36.76140213012695,20.933469772338867,1.543968677520752,14.283965110778809
0.0006006944131837446,52824,,,,,,,,,,,
,52849,1.4154067039489746,71,,,,,,,,,
,52899,1.1441495418548584,71,,,,,,,,,
,52949,1.3440381288528442,71,,,,,,,,,
,52999,1.3722856044769287,71,,,,,,,,,
,53049,1.507422924041748,71,,,,,,,,,
,53099,1.1930440664291382,71,,,,,,,,,
,53149,1.3559248447418213,71,,,,,,,,,
,53199,1.1973423957824707,71,,,,,,,,,
,53249,1.2789497375488281,71,,,,,,,,,
,53299,1.3387244939804077,71,,,,,,,,,
,53349,1.2519946098327637,71,,,,,,,,,
,53399,1.4143247604370117,71,,,,,,,,,
,53449,1.2981679439544678,71,,,,,,,,,
,53499,1.588720440864563,71,,,,,,,,,
,53549,1.3355226516723633,71,,,,,,,,,
,53567,,71,1.2425858974456787,32.4792366027832,16.20564842224121,1.9466744661331177,14.326913833618164,,,,
,53567,,71,,,,,,36.725067138671875,20.901016235351562,1.5518770217895508,14.272174835205078
0.0005896891689519189,53568,,,,,,,,,,,
,53599,1.197366714477539,72,,,,,,,,,
,53649,1.3536241054534912,72,,,,,,,,,
,53699,1.3670520782470703,72,,,,,,,,,
,53749,1.4451079368591309,72,,,,,,,,,
,53799,1.2350298166275024,72,,,,,,,,,
,53849,1.533531904220581,72,,,,,,,,,
,53899,1.3629255294799805,72,,,,,,,,,
,53949,1.315550684928894,72,,,,,,,,,
,53999,1.3830374479293823,72,,,,,,,,,
,54049,1.4387941360473633,72,,,,,,,,,
,54099,1.3110597133636475,72,,,,,,,,,
,54149,1.5101209878921509,72,,,,,,,,,
,54199,1.4337670803070068,72,,,,,,,,,
,54249,1.2662434577941895,72,,,,,,,,,
,54299,1.532397985458374,72,,,,,,,,,
,54311,,72,1.229308009147644,32.4334831237793,16.674291610717773,1.6638243198394775,14.095364570617676,,,,
,54311,,72,,,,,,36.32500076293945,20.664928436279297,1.5367302894592285,14.123344421386719
0.0005786390152875952,54312,,,,,,,,,,,
,54349,1.5215342044830322,73,,,,,,,,,
,54399,1.3088088035583496,73,,,,,,,,,
,54449,1.3746916055679321,73,,,,,,,,,
,54499,1.39747953414917,73,,,,,,,,,
,54549,1.4081525802612305,73,,,,,,,,,
,54599,1.3058857917785645,73,,,,,,,,,
,54649,1.2018311023712158,73,,,,,,,,,
,54699,1.5432496070861816,73,,,,,,,,,
,54749,1.2334716320037842,73,,,,,,,,,
,54799,1.4152774810791016,73,,,,,,,,,
,54849,1.112471103668213,73,,,,,,,,,
,54899,1.1517255306243896,73,,,,,,,,,
,54949,1.4555891752243042,73,,,,,,,,,
,54999,1.4632079601287842,73,,,,,,,,,
,55049,1.3495981693267822,73,,,,,,,,,
,55055,,73,1.2328667640686035,32.708011627197266,17.190078735351562,1.5681544542312622,13.949780464172363,,,,
,55055,,73,,,,,,36.393611907958984,20.6839542388916,1.5132713317871094,14.19638729095459
0.0005675495162759188,55056,,,,,,,,,,,
,55099,1.415176510810852,74,,,,,,,,,
,55149,1.254655361175537,74,,,,,,,,,
,55199,1.2630152702331543,74,,,,,,,,,
,55249,1.5246678590774536,74,,,,,,,,,
,55299,1.4034655094146729,74,,,,,,,,,
,55349,1.2322998046875,74,,,,,,,,,
,55399,1.2446017265319824,74,,,,,,,,,
,55449,1.3805170059204102,74,,,,,,,,,
,55499,1.396350622177124,74,,,,,,,,,
,55549,1.3129680156707764,74,,,,,,,,,
,55599,1.4929261207580566,74,,,,,,,,,
,55649,1.6091153621673584,74,,,,,,,,,
,55699,1.2591562271118164,74,,,,,,,,,
,55749,1.4448425769805908,74,,,,,,,,,
,55799,1.326495885848999,74,,,,,,,,,
,55799,,74,1.2259405851364136,32.669189453125,16.72559356689453,1.7289907932281494,14.214605331420898,,,,
,55799,,74,,,,,,36.069427490234375,20.56368064880371,1.5569814443588257,13.948763847351074
0.0005564262558136021,55800,,,,,,,,,,,
,55849,1.1343722343444824,75,,,,,,,,,
,55899,1.4110641479492188,75,,,,,,,,,
,55949,1.310579538345337,75,,,,,,,,,
,55999,1.12032151222229,75,,,,,,,,,
,56049,1.3214045763015747,75,,,,,,,,,
,56099,1.3273003101348877,75,,,,,,,,,
,56149,1.3546311855316162,75,,,,,,,,,
,56199,1.2837210893630981,75,,,,,,,,,
,56249,1.3548834323883057,75,,,,,,,,,
,56299,1.2780768871307373,75,,,,,,,,,
,56349,1.3566155433654785,75,,,,,,,,,
,56399,1.3160041570663452,75,,,,,,,,,
,56449,1.2232667207717896,75,,,,,,,,,
,56499,1.3914951086044312,75,,,,,,,,,
,56543,,75,1.218424677848816,32.34613037109375,17.123525619506836,1.5570622682571411,13.665543556213379,,,,
,56543,,75,,,,,,35.94349670410156,20.45832061767578,1.5764663219451904,13.908709526062012
0.0005452748347972648,56544,,,,,,,,,,,
,56549,1.2246074676513672,76,,,,,,,,,
,56599,1.2057409286499023,76,,,,,,,,,
,56649,1.460187554359436,76,,,,,,,,,
,56699,1.4507651329040527,76,,,,,,,,,
,56749,1.4504001140594482,76,,,,,,,,,
,56799,1.3911042213439941,76,,,,,,,,,
,56849,1.2299681901931763,76,,,,,,,,,
,56899,1.4367132186889648,76,,,,,,,,,
,56949,1.153990387916565,76,,,,,,,,,
,56999,1.4066638946533203,76,,,,,,,,,
,57049,1.2709629535675049,76,,,,,,,,,
,57099,1.1654058694839478,76,,,,,,,,,
,57149,1.3152167797088623,76,,,,,,,,,
,57199,1.3262077569961548,76,,,,,,,,,
,57249,1.3583842515945435,76,,,,,,,,,
,57287,,76,1.2150373458862305,32.15895080566406,17.13184356689453,1.5584487915039062,13.468657493591309,,,,
,57287,,76,,,,,,35.92010498046875,20.53511619567871,1.5351159572601318,13.849870681762695
0.0005341008683032136,57288,,,,,,,,,,,
,57299,1.2656124830245972,77,,,,,,,,,
,57349,1.454518437385559,77,,,,,,,,,
,57399,1.3472506999969482,77,,,,,,,,,
,57449,1.2786378860473633,77,,,,,,,,,
,57499,1.2419345378875732,77,,,,,,,,,
,57549,1.2682523727416992,77,,,,,,,,,
,57599,1.2916224002838135,77,,,,,,,,,
,57649,1.3999680280685425,77,,,,,,,,,
,57699,1.2097511291503906,77,,,,,,,,,
,57749,1.239074945449829,77,,,,,,,,,
,57799,1.1058628559112549,77,,,,,,,,,
,57849,1.2372121810913086,77,,,,,,,,,
,57899,1.4109662771224976,77,,,,,,,,,
,57949,1.4268743991851807,77,,,,,,,,,
,57999,1.4460022449493408,77,,,,,,,,,
,58031,,77,1.2253289222717285,32.39604568481445,17.2358341217041,1.4641653299331665,13.696046829223633,,,,
,58031,,77,,,,,,35.84587097167969,20.577228546142578,1.5015161037445068,13.767126083374023
0.0005229099827600821,58032,,,,,,,,,,,
,58049,1.134659767150879,78,,,,,,,,,
,58099,1.389986276626587,78,,,,,,,,,
,58149,1.3449753522872925,78,,,,,,,,,
,58199,1.359766960144043,78,,,,,,,,,
,58249,1.3508272171020508,78,,,,,,,,,
,58299,1.4414516687393188,78,,,,,,,,,
,58349,1.1943728923797607,78,,,,,,,,,
,58399,1.3720868825912476,78,,,,,,,,,
,58449,1.341325044631958,78,,,,,,,,,
,58499,1.1332696676254272,78,,,,,,,,,
,58549,1.2823283672332764,78,,,,,,,,,
,58599,1.27901029586792,78,,,,,,,,,
,58649,1.279059886932373,78,,,,,,,,,
,58699,1.2647807598114014,78,,,,,,,,,
,58749,1.292465090751648,78,,,,,,,,,
,58775,,78,1.2158055305480957,32.43209457397461,17.495113372802734,1.4253427982330322,13.511639595031738,,,,
,58775,,78,,,,,,35.470619201660156,20.25786781311035,1.5557174682617188,13.65703296661377
0.0005117078131157544,58776,,,,,,,,,,,
,58799,1.279275894165039,79,,,,,,,,,
,58849,1.2806298732757568,79,,,,,,,,,
,58899,1.1616430282592773,79,,,,,,,,,
,58949,1.1984443664550781,79,,,,,,,,,
,58999,1.308635950088501,79,,,,,,,,,
,59049,1.3356618881225586,79,,,,,,,,,
,59099,1.3095703125,79,,,,,,,,,
,59149,1.2207385301589966,79,,,,,,,,,
,59199,1.241525411605835,79,,,,,,,,,
,59249,1.2729262113571167,79,,,,,,,,,
,59299,1.5097668170928955,79,,,,,,,,,
,59349,1.3117680549621582,79,,,,,,,,,
,59399,1.45247220993042,79,,,,,,,,,
,59449,1.593218445777893,79,,,,,,,,,
,59499,1.4265496730804443,79,,,,,,,,,
,59519,,79,1.20561683177948,32.00782012939453,17.09440803527832,1.5085340738296509,13.404877662658691,,,,
,59519,,79,,,,,,35.368953704833984,20.322738647460938,1.525830626487732,13.520384788513184
0.0005004999999999998,59520,,,,,,,,,,,
,59549,1.2380237579345703,80,,,,,,,,,
,59599,1.3665213584899902,80,,,,,,,,,
,59649,1.3876692056655884,80,,,,,,,,,
,59699,1.272988200187683,80,,,,,,,,,
,59749,1.2712795734405518,80,,,,,,,,,
,59799,1.0971295833587646,80,,,,,,,,,
,59849,1.2935322523117065,80,,,,,,,,,
,59899,1.4208977222442627,80,,,,,,,,,
,59949,1.2922695875167847,80,,,,,,,,,
,59999,1.277174949645996,80,,,,,,,,,
,60049,1.3181613683700562,80,,,,,,,,,
,60099,1.3221269845962524,80,,,,,,,,,
,60149,1.1124508380889893,80,,,,,,,,,
,60199,1.0906026363372803,80,,,,,,,,,
,60249,1.3142240047454834,80,,,,,,,,,
,60263,,80,1.2129648923873901,31.863622665405273,16.41501235961914,1.684622049331665,13.763986587524414,,,,
,60263,,80,,,,,,35.1118278503418,20.11863136291504,1.5298458337783813,13.463351249694824
0.0004892921868842453,60264,,,,,,,,,,,
,60299,1.3588223457336426,81,,,,,,,,,
,60349,1.3898367881774902,81,,,,,,,,,
,60399,1.4588918685913086,81,,,,,,,,,
,60449,1.4233745336532593,81,,,,,,,,,
,60499,1.527008056640625,81,,,,,,,,,
,60549,1.37296462059021,81,,,,,,,,,
,60599,1.5287539958953857,81,,,,,,,,,
,60649,1.2403645515441895,81,,,,,,,,,
,60699,1.2591893672943115,81,,,,,,,,,
,60749,1.5005511045455933,81,,,,,,,,,
,60799,1.1498537063598633,81,,,,,,,,,
,60849,1.160151481628418,81,,,,,,,,,
,60899,1.1939001083374023,81,,,,,,,,,
,60949,1.4737380743026733,81,,,,,,,,,
,60999,1.230830192565918,81,,,,,,,,,
,61007,,81,1.1984807252883911,31.553041458129883,16.201488494873047,1.8260471820831299,13.525505065917969,,,,
,61007,,81,,,,,,34.885658264160156,20.055280685424805,1.4962304830551147,13.334148406982422
0.0004780900172399177,61008,,,,,,,,,,,
,61049,1.4137934446334839,82,,,,,,,,,
,61099,1.252981424331665,82,,,,,,,,,
,61149,1.2824645042419434,82,,,,,,,,,
,61199,1.2896450757980347,82,,,,,,,,,
,61249,1.2830132246017456,82,,,,,,,,,
,61299,1.2312251329421997,82,,,,,,,,,
,61349,1.2560666799545288,82,,,,,,,,,
,61399,1.083475112915039,82,,,,,,,,,
,61449,1.331831455230713,82,,,,,,,,,
,61499,1.5514271259307861,82,,,,,,,,,
,61549,1.400223731994629,82,,,,,,,,,
,61599,1.2342216968536377,82,,,,,,,,,
,61649,1.3207433223724365,82,,,,,,,,,
,61699,1.223689317703247,82,,,,,,,,,
,61749,1.2252788543701172,82,,,,,,,,,
,61751,,82,1.2089014053344727,31.514219284057617,15.951915740966797,1.893986701965332,13.668316841125488,,,,
,61751,,82,,,,,,34.920169830322266,20.0882568359375,1.4810606241226196,13.350851058959961
0.0004668991316967861,61752,,,,,,,,,,,
,61799,1.3208608627319336,83,,,,,,,,,
,61849,1.199497938156128,83,,,,,,,,,
,61899,1.0420564413070679,83,,,,,,,,,
,61949,1.241790533065796,83,,,,,,,,,
,61999,1.1709532737731934,83,,,,,,,,,
,62049,1.3743946552276611,83,,,,,,,,,
,62099,1.4618982076644897,83,,,,,,,,,
,62149,1.4040727615356445,83,,,,,,,,,
,62199,1.1610689163208008,83,,,,,,,,,
,62249,1.1957550048828125,83,,,,,,,,,
,62299,1.1190979480743408,83,,,,,,,,,
,62349,1.1748857498168945,83,,,,,,,,,
,62399,1.1996183395385742,83,,,,,,,,,
,62449,1.2898707389831543,83,,,,,,,,,
,62495,,83,1.2002242803573608,31.597410202026367,16.441356658935547,1.6818491220474243,13.474204063415527,,,,
,62495,,83,,,,,,34.63984680175781,19.838542938232422,1.4999339580535889,13.30136775970459
0.0004557251652027349,62496,,,,,,,,,,,
,62499,1.128462314605713,84,,,,,,,,,
,62549,1.2384650707244873,84,,,,,,,,,
,62599,1.5771572589874268,84,,,,,,,,,
,62649,1.2547001838684082,84,,,,,,,,,
,62699,1.2346282005310059,84,,,,,,,,,
,62749,1.2774059772491455,84,,,,,,,,,
,62799,1.1504417657852173,84,,,,,,,,,
,62849,1.3178565502166748,84,,,,,,,,,
,62899,1.2512599229812622,84,,,,,,,,,
,62949,1.3767609596252441,84,,,,,,,,,
,62999,1.1966183185577393,84,,,,,,,,,
,63049,1.327072024345398,84,,,,,,,,,
,63099,1.4659180641174316,84,,,,,,,,,
,63149,1.315900206565857,84,,,,,,,,,
,63199,1.321336269378662,84,,,,,,,,,
,63239,,84,1.201919674873352,31.876100540161133,17.33704948425293,1.4350484609603882,13.104002952575684,,,,
,63239,,84,,,,,,34.58509826660156,19.958127975463867,1.5358608961105347,13.091109275817871
0.0004445737441863976,63240,,,,,,,,,,,
,63249,1.2009921073913574,85,,,,,,,,,
,63299,1.2076364755630493,85,,,,,,,,,
,63349,1.333962082862854,85,,,,,,,,,
,63399,1.2759242057800293,85,,,,,,,,,
,63449,1.2191691398620605,85,,,,,,,,,
,63499,1.407218337059021,85,,,,,,,,,
,63549,1.372320294380188,85,,,,,,,,,
,63599,1.2157089710235596,85,,,,,,,,,
,63649,1.303431510925293,85,,,,,,,,,
,63699,1.3556194305419922,85,,,,,,,,,
,63749,1.2159738540649414,85,,,,,,,,,
,63799,1.2628239393234253,85,,,,,,,,,
,63849,1.2973889112472534,85,,,,,,,,,
,63899,1.231552004814148,85,,,,,,,,,
,63949,1.1527400016784668,85,,,,,,,,,
,63983,,85,1.1929314136505127,31.716650009155273,17.20532989501953,1.3782011270523071,13.133119583129883,,,,
,63983,,85,,,,,,34.641456604003906,19.91094970703125,1.460306167602539,13.270201683044434
0.000433450483724081,63984,,,,,,,,,,,
,63999,0.992929995059967,86,,,,,,,,,
,64049,1.1950829029083252,86,,,,,,,,,
,64099,1.3883793354034424,86,,,,,,,,,
,64149,1.2036923170089722,86,,,,,,,,,
,64199,1.261098861694336,86,,,,,,,,,
,64249,1.370048999786377,86,,,,,,,,,
,64299,1.1495018005371094,86,,,,,,,,,
,64349,1.2502057552337646,86,,,,,,,,,
,64399,1.3386297225952148,86,,,,,,,,,
,64449,1.1237270832061768,86,,,,,,,,,
,64499,1.1767739057540894,86,,,,,,,,,
,64549,1.3685917854309082,86,,,,,,,,,
,64599,1.2012147903442383,86,,,,,,,,,
,64649,1.2162439823150635,86,,,,,,,,,
,64699,1.330461025238037,86,,,,,,,,,
,64727,,86,1.1880409717559814,31.738834381103516,17.5186824798584,1.3587898015975952,12.861361503601074,,,,
,64727,,86,,,,,,34.33161926269531,19.779512405395508,1.4876145124435425,13.064492225646973
0.0004223609847124046,64728,,,,,,,,,,,
,64749,1.2931933403015137,87,,,,,,,,,
,64799,1.2797021865844727,87,,,,,,,,,
,64849,1.2167863845825195,87,,,,,,,,,
,64899,1.2087883949279785,87,,,,,,,,,
,64949,1.2714874744415283,87,,,,,,,,,
,64999,1.2150282859802246,87,,,,,,,,,
,65049,1.5055510997772217,87,,,,,,,,,
,65099,1.2281304597854614,87,,,,,,,,,
,65149,1.373494029045105,87,,,,,,,,,
,65199,1.2147047519683838,87,,,,,,,,,
,65249,1.1280508041381836,87,,,,,,,,,
,65299,1.2419158220291138,87,,,,,,,,,
,65349,1.4759875535964966,87,,,,,,,,,
,65399,1.2912496328353882,87,,,,,,,,,
,65449,1.3201266527175903,87,,,,,,,,,
,65471,,87,1.1925352811813354,31.42270851135254,17.044492721557617,1.4918957948684692,12.886319160461426,,,,
,65471,,87,,,,,,34.26154327392578,19.762723922729492,1.5084770917892456,12.99034309387207
0.0004113108310480809,65472,,,,,,,,,,,
,65499,1.2311575412750244,88,,,,,,,,,
,65549,1.3224096298217773,88,,,,,,,,,
,65599,1.3833050727844238,88,,,,,,,,,
,65649,1.2468552589416504,88,,,,,,,,,
,65699,1.2292457818984985,88,,,,,,,,,
,65749,1.2044620513916016,88,,,,,,,,,
,65799,1.1859605312347412,88,,,,,,,,,
,65849,1.1320652961730957,88,,,,,,,,,
,65899,1.2486250400543213,88,,,,,,,,,
,65949,1.2163430452346802,88,,,,,,,,,
,65999,1.2983460426330566,88,,,,,,,,,
,66049,1.1887948513031006,88,,,,,,,,,
,66099,1.2703617811203003,88,,,,,,,,,
,66149,1.2364178895950317,88,,,,,,,,,
,66199,1.1654913425445557,88,,,,,,,,,
,66215,,88,1.1943899393081665,31.26603126525879,15.78830623626709,1.9036922454833984,13.5740327835083,,,,
,66215,,88,,,,,,34.13347625732422,19.70740509033203,1.532812476158142,12.89326000213623
0.00040030558681625514,66216,,,,,,,,,,,
,66249,1.4034595489501953,89,,,,,,,,,
,66299,1.2019404172897339,89,,,,,,,,,
,66349,1.3557308912277222,89,,,,,,,,,
,66399,1.3899955749511719,89,,,,,,,,,
,66449,1.2947313785552979,89,,,,,,,,,
,66499,1.1334269046783447,89,,,,,,,,,
,66549,1.194939374923706,89,,,,,,,,,
,66599,1.3581342697143555,89,,,,,,,,,
,66649,1.447324275970459,89,,,,,,,,,
,66699,1.1645116806030273,89,,,,,,,,,
,66749,1.2101426124572754,89,,,,,,,,,
,66799,1.4488037824630737,89,,,,,,,,,
,66849,1.4352298974990845,89,,,,,,,,,
,66899,1.250946283340454,89,,,,,,,,,
,66949,1.34389066696167,89,,,,,,,,,
,66959,,89,1.1840407848358154,31.437959671020508,16.750551223754883,1.5223991870880127,13.165009498596191,,,,
,66959,,89,,,,,,34.07082748413086,19.81341552734375,1.5218042135238647,12.735607147216797
0.0003893507934888208,66960,,,,,,,,,,,
,66999,1.270708441734314,90,,,,,,,,,
,67049,1.416841983795166,90,,,,,,,,,
,67099,1.1285269260406494,90,,,,,,,,,
,67149,1.173307180404663,90,,,,,,,,,
,67199,1.2393481731414795,90,,,,,,,,,
,67249,1.2236677408218384,90,,,,,,,,,
,67299,1.1127989292144775,90,,,,,,,,,
,67349,1.2518571615219116,90,,,,,,,,,
,67399,1.4478338956832886,90,,,,,,,,,
,67449,1.2304039001464844,90,,,,,,,,,
,67499,1.2645741701126099,90,,,,,,,,,
,67549,1.2356570959091187,90,,,,,,,,,
,67599,1.2565628290176392,90,,,,,,,,,
,67649,0.9636887907981873,90,,,,,,,,,
,67699,1.1462454795837402,90,,,,,,,,,
,67703,,90,1.1821328401565552,31.38943099975586,16.908615112304688,1.4669383764266968,13.01387882232666,,,,
,67703,,90,,,,,,33.6711311340332,19.538846969604492,1.4987953901290894,12.6334867477417
0.0003784519671341218,67704,,,,,,,,,,,
,67749,1.4309942722320557,91,,,,,,,,,
,67799,1.198804259300232,91,,,,,,,,,
,67849,1.1028871536254883,91,,,,,,,,,
,67899,1.1647671461105347,91,,,,,,,,,
,67949,1.3364074230194092,91,,,,,,,,,
,67999,1.1755504608154297,91,,,,,,,,,
,68049,1.3486566543579102,91,,,,,,,,,
,68099,1.2368115186691284,91,,,,,,,,,
,68149,1.2180774211883545,91,,,,,,,,,
,68199,1.0748016834259033,91,,,,,,,,,
,68249,1.1513179540634155,91,,,,,,,,,
,68299,1.039982795715332,91,,,,,,,,,
,68349,1.1012476682662964,91,,,,,,,,,
,68399,1.430647611618042,91,,,,,,,,,
,68447,,91,1.1762834787368774,30.85146141052246,16.570302963256836,1.5140801668167114,12.767078399658203,,,,
,68447,,91,,,,,,33.62125778198242,19.52558708190918,1.48959219455719,12.606077194213867
0.00036761459563944575,68448,,,,,,,,,,,
,68449,1.3158276081085205,92,,,,,,,,,
,68499,1.3372716903686523,92,,,,,,,,,
,68549,1.2496991157531738,92,,,,,,,,,
,68599,1.2485661506652832,92,,,,,,,,,
,68649,1.1970146894454956,92,,,,,,,,,
,68699,1.231677770614624,92,,,,,,,,,
,68749,1.1794898509979248,92,,,,,,,,,
,68799,1.211020827293396,92,,,,,,,,,
,68849,1.2687876224517822,92,,,,,,,,,
,68899,1.345993995666504,92,,,,,,,,,
,68949,1.0909637212753296,92,,,,,,,,,
,68999,1.2238154411315918,92,,,,,,,,,
,69049,1.2943474054336548,92,,,,,,,,,
,69099,1.1647425889968872,92,,,,,,,,,
,69149,1.1929283142089844,92,,,,,,,,,
,69191,,92,1.1820787191390991,30.991500854492188,16.078088760375977,1.7484019994735718,13.165009498596191,,,,
,69191,,92,,,,,,33.687705993652344,19.581069946289062,1.4801089763641357,12.626524925231934
0.0003568441359477071,69192,,,,,,,,,,,
,69199,1.2445555925369263,93,,,,,,,,,
,69249,1.395611047744751,93,,,,,,,,,
,69299,1.1762131452560425,93,,,,,,,,,
,69349,1.103685975074768,93,,,,,,,,,
,69399,1.0987153053283691,93,,,,,,,,,
,69449,1.215285301208496,93,,,,,,,,,
,69499,1.114641547203064,93,,,,,,,,,
,69549,1.1059238910675049,93,,,,,,,,,
,69599,1.1575433015823364,93,,,,,,,,,
,69649,1.3704032897949219,93,,,,,,,,,
,69699,1.136627435684204,93,,,,,,,,,
,69749,1.268336296081543,93,,,,,,,,,
,69799,1.2813339233398438,93,,,,,,,,,
,69849,1.2542214393615723,93,,,,,,,,,
,69899,1.2212780714035034,93,,,,,,,,,
,69935,,93,1.17389714717865,31.06914520263672,16.833742141723633,1.3712685108184814,12.864134788513184,,,,
,69935,,93,,,,,,33.52397918701172,19.445724487304688,1.5298806428909302,12.548372268676758
0.0003461460113097136,69936,,,,,,,,,,,
,69949,1.0058612823486328,94,,,,,,,,,
,69999,1.2347170114517212,94,,,,,,,,,
,70049,1.3626562356948853,94,,,,,,,,,
,70099,1.1300840377807617,94,,,,,,,,,
,70149,1.2091939449310303,94,,,,,,,,,
,70199,1.1835618019104004,94,,,,,,,,,
,70249,1.263643741607666,94,,,,,,,,,
,70299,1.232588529586792,94,,,,,,,,,
,70349,1.3759046792984009,94,,,,,,,,,
,70399,1.269675612449646,94,,,,,,,,,
,70449,1.101197361946106,94,,,,,,,,,
,70499,1.2456697225570679,94,,,,,,,,,
,70549,1.4213656187057495,94,,,,,,,,,
,70599,1.035050630569458,94,,,,,,,,,
,70649,1.0358901023864746,94,,,,,,,,,
,70679,,94,1.1868078708648682,30.826505661010742,15.883975982666016,1.7386963367462158,13.203832626342773,,,,
,70679,,94,,,,,,33.4643669128418,19.398170471191406,1.500544548034668,12.565650939941406
0.0003355256085533939,70680,,,,,,,,,,,
,70699,1.147032618522644,95,,,,,,,,,
,70749,1.4862215518951416,95,,,,,,,,,
,70799,1.206519365310669,95,,,,,,,,,
,70849,1.2940592765808105,95,,,,,,,,,
,70899,1.4324285984039307,95,,,,,,,,,
,70949,1.3022230863571167,95,,,,,,,,,
,70999,1.310389518737793,95,,,,,,,,,
,71049,1.3951873779296875,95,,,,,,,,,
,71099,1.2091920375823975,95,,,,,,,,,
,71149,1.2271950244903564,95,,,,,,,,,
,71199,1.144992709159851,95,,,,,,,,,
,71249,1.00092613697052,95,,,,,,,,,
,71299,1.1029634475708008,95,,,,,,,,,
,71349,1.1276586055755615,95,,,,,,,,,
,71399,1.2240839004516602,95,,,,,,,,,
,71423,,95,1.1707335710525513,30.796001434326172,16.649335861206055,1.4073179960250854,12.739348411560059,,,,
,71423,,95,,,,,,33.131744384765625,19.2187557220459,1.5087108612060547,12.404276847839355
0.0003249882753713692,71424,,,,,,,,,,,
,71449,1.2965121269226074,96,,,,,,,,,
,71499,1.3625376224517822,96,,,,,,,,,
,71549,1.0607844591140747,96,,,,,,,,,
,71599,1.0749197006225586,96,,,,,,,,,
,71649,1.3585503101348877,96,,,,,,,,,
,71699,1.1661262512207031,96,,,,,,,,,
,71749,1.2004191875457764,96,,,,,,,,,
,71799,1.2305257320404053,96,,,,,,,,,
,71849,1.1668281555175781,96,,,,,,,,,
,71899,1.0697917938232422,96,,,,,,,,,
,71949,1.1985529661178589,96,,,,,,,,,
,71999,1.2456691265106201,96,,,,,,,,,
,72049,1.2214406728744507,96,,,,,,,,,
,72099,1.3531254529953003,96,,,,,,,,,
,72149,1.115125298500061,96,,,,,,,,,
,72167,,96,1.1827387809753418,30.929107666015625,16.176530838012695,1.5598353147506714,13.192740440368652,,,,
,72167,,96,,,,,,33.15180206298828,19.203554153442383,1.463075876235962,12.4851713180542
0.00031453931762822837,72168,,,,,,,,,,,
,72199,1.2472130060195923,97,,,,,,,,,
,72249,1.1091351509094238,97,,,,,,,,,
,72299,1.2125442028045654,97,,,,,,,,,
,72349,1.3055590391159058,97,,,,,,,,,
,72399,1.0839341878890991,97,,,,,,,,,
,72449,1.3343214988708496,97,,,,,,,,,
,72499,1.3922803401947021,97,,,,,,,,,
,72549,1.1729408502578735,97,,,,,,,,,
,72599,1.231428623199463,97,,,,,,,,,
,72649,1.1478034257888794,97,,,,,,,,,
,72699,1.188328742980957,97,,,,,,,,,
,72749,1.2649807929992676,97,,,,,,,,,
,72799,1.2645313739776611,97,,,,,,,,,
,72849,1.273684024810791,97,,,,,,,,,
,72899,1.18099844455719,97,,,,,,,,,
,72911,,97,1.178647756576538,31.184226989746094,16.921092987060547,1.423956274986267,12.839177131652832,,,,
,72911,,97,,,,,,32.966434478759766,19.15166473388672,1.533757209777832,12.281012535095215
0.0003041839966888652,72912,,,,,,,,,,,
,72949,1.299500584602356,98,,,,,,,,,
,72999,1.2191989421844482,98,,,,,,,,,
,73049,1.3025212287902832,98,,,,,,,,,
,73099,1.3639811277389526,98,,,,,,,,,
,73149,0.9764564037322998,98,,,,,,,,,
,73199,1.1354973316192627,98,,,,,,,,,
,73249,1.2176858186721802,98,,,,,,,,,
,73299,1.2565221786499023,98,,,,,,,,,
,73349,1.2834339141845703,98,,,,,,,,,
,73399,1.5949949026107788,98,,,,,,,,,
,73449,1.199450969696045,98,,,,,,,,,
,73499,1.193171739578247,98,,,,,,,,,
,73549,1.2382714748382568,98,,,,,,,,,
,73599,0.9700291156768799,98,,,,,,,,,
,73649,1.2547097206115723,98,,,,,,,,,
,73655,,98,1.1709775924682617,30.621299743652344,16.19594383239746,1.6250017881393433,12.800354957580566,,,,
,73655,,98,,,,,,32.751953125,19.089031219482422,1.5079855918884277,12.154935836791992
0.0002939275267692228,73656,,,,,,,,,,,
,73699,1.252851963043213,99,,,,,,,,,
,73749,1.4842205047607422,99,,,,,,,,,
,73799,1.0404868125915527,99,,,,,,,,,
,73849,1.0888292789459229,99,,,,,,,,,
,73899,1.0209428071975708,99,,,,,,,,,
,73949,1.1792683601379395,99,,,,,,,,,
,73999,1.1594038009643555,99,,,,,,,,,
,74049,1.6190835237503052,99,,,,,,,,,
,74099,1.1231143474578857,99,,,,,,,,,
,74149,1.3804686069488525,99,,,,,,,,,
,74199,1.4111987352371216,99,,,,,,,,,
,74249,1.2336695194244385,99,,,,,,,,,
,74299,1.3071208000183105,99,,,,,,,,,
,74349,1.0914710760116577,99,,,,,,,,,
,74399,1.1702646017074585,99,,,,,,,,,
,74399,,99,1.1748439073562622,30.48542022705078,15.547051429748535,1.770586371421814,13.1677827835083,,,,
,74399,,99,,,,,,32.80206298828125,19.116012573242188,1.4604254961013794,12.225626945495605
0.00028377507231077965,74400,,,,,,,,,,,
,74449,1.206721305847168,100,,,,,,,,,
,74499,1.139173984527588,100,,,,,,,,,
,74549,1.085885763168335,100,,,,,,,,,
,74599,1.0421497821807861,100,,,,,,,,,
,74649,1.2588759660720825,100,,,,,,,,,
,74699,1.0855971574783325,100,,,,,,,,,
,74749,0.9812883138656616,100,,,,,,,,,
,74799,1.1691489219665527,100,,,,,,,,,
,74849,1.1077533960342407,100,,,,,,,,,
,74899,1.2735519409179688,100,,,,,,,,,
,74949,1.1958081722259521,100,,,,,,,,,
,74999,1.22265625,100,,,,,,,,,
,75049,1.2215580940246582,100,,,,,,,,,
,75099,1.1253013610839844,100,,,,,,,,,
,75143,,100,1.1733975410461426,30.994274139404297,17.136003494262695,1.3338325023651123,12.524436950683594,,,,
,75143,,100,,,,,,32.72138977050781,19.159217834472656,1.5104163885116577,12.051755905151367
0.0002737317453800963,75144,,,,,,,,,,,
,75149,1.1616978645324707,101,,,,,,,,,
,75199,1.3305127620697021,101,,,,,,,,,
,75249,1.0703285932540894,101,,,,,,,,,
,75299,1.2716063261032104,101,,,,,,,,,
,75349,1.2502174377441406,101,,,,,,,,,
,75399,1.411130428314209,101,,,,,,,,,
,75449,1.1991620063781738,101,,,,,,,,,
,75499,1.110325813293457,101,,,,,,,,,
,75549,1.2086033821105957,101,,,,,,,,,
,75599,1.1934442520141602,101,,,,,,,,,
,75649,1.094618558883667,101,,,,,,,,,
,75699,1.1917951107025146,101,,,,,,,,,
,75749,1.229017972946167,101,,,,,,,,,
,75799,1.2527437210083008,101,,,,,,,,,
,75849,0.9657092094421387,101,,,,,,,,,
,75887,,101,1.1628592014312744,30.507604598999023,16.132164001464844,1.6042039394378662,12.771238327026367,,,,
,75887,,101,,,,,,32.56105041503906,19.01239585876465,1.4596867561340332,12.088969230651855
0.00026380260309473707,75888,,,,,,,,,,,
,75899,1.2122615575790405,102,,,,,,,,,
,75949,1.139651894569397,102,,,,,,,,,
,75999,1.2654281854629517,102,,,,,,,,,
,76049,1.3325692415237427,102,,,,,,,,,
,76099,1.0977768898010254,102,,,,,,,,,
,76149,1.2250317335128784,102,,,,,,,,,
,76199,1.2520629167556763,102,,,,,,,,,
,76249,1.1144382953643799,102,,,,,,,,,
,76299,1.19777250289917,102,,,,,,,,,
,76349,1.113147497177124,102,,,,,,,,,
,76399,0.9587048888206482,102,,,,,,,,,
,76449,1.3700437545776367,102,,,,,,,,,
,76499,1.203218698501587,102,,,,,,,,,
,76549,1.0842344760894775,102,,,,,,,,,
,76599,1.0565171241760254,102,,,,,,,,,
,76631,,102,1.1623860597610474,30.32735824584961,15.614991188049316,1.7442424297332764,12.968123435974121,,,,
,76631,,102,,,,,,32.36430740356445,18.82660675048828,1.4881584644317627,12.049543380737305
0.0002539926450768586,76632,,,,,,,,,,,
,76649,1.4517625570297241,103,,,,,,,,,
,76699,1.2839691638946533,103,,,,,,,,,
,76749,1.3848843574523926,103,,,,,,,,,
,76799,1.2525644302368164,103,,,,,,,,,
,76849,1.3144402503967285,103,,,,,,,,,
,76899,1.1891499757766724,103,,,,,,,,,
,76949,1.0788997411727905,103,,,,,,,,,
,76999,1.257340669631958,103,,,,,,,,,
,77049,1.1163864135742188,103,,,,,,,,,
,77099,1.2246778011322021,103,,,,,,,,,
,77149,0.9859445095062256,103,,,,,,,,,
,77199,1.1262770891189575,103,,,,,,,,,
,77249,1.2749119997024536,103,,,,,,,,,
,77299,1.1858888864517212,103,,,,,,,,,
,77349,1.17024564743042,103,,,,,,,,,
,77375,,103,1.1626712083816528,30.68507957458496,16.385896682739258,1.5390374660491943,12.760146141052246,,,,
,77375,,103,,,,,,32.211856842041016,18.840673446655273,1.504165768623352,11.867018699645996
0.00024430681093574983,77376,,,,,,,,,,,
,77399,1.0770654678344727,104,,,,,,,,,
,77449,1.1185781955718994,104,,,,,,,,,
,77499,1.2582736015319824,104,,,,,,,,,
,77549,1.2004740238189697,104,,,,,,,,,
,77599,1.2035903930664062,104,,,,,,,,,
,77649,1.0451523065567017,104,,,,,,,,,
,77699,1.2279222011566162,104,,,,,,,,,
,77749,1.1979856491088867,104,,,,,,,,,
,77799,1.0371854305267334,104,,,,,,,,,
,77849,1.2595082521438599,104,,,,,,,,,
,77899,1.2009016275405884,104,,,,,,,,,
,77949,1.2212817668914795,104,,,,,,,,,
,77999,1.1417876482009888,104,,,,,,,,,
,78049,1.2724378108978271,104,,,,,,,,,
,78099,1.0672292709350586,104,,,,,,,,,
,78119,,104,1.1608861684799194,30.427186965942383,16.233379364013672,1.566767930984497,12.627039909362793,,,,
,78119,,104,,,,,,32.24607467651367,18.7860050201416,1.5061299800872803,11.953939437866211
0.00023474997778058935,78120,,,,,,,,,,,
,78149,1.05354642868042,105,,,,,,,,,
,78199,1.2141563892364502,105,,,,,,,,,
,78249,1.1379492282867432,105,,,,,,,,,
,78299,1.12099289894104,105,,,,,,,,,
,78349,1.1627843379974365,105,,,,,,,,,
,78399,1.2655696868896484,105,,,,,,,,,
,78449,1.1321237087249756,105,,,,,,,,,
,78499,1.1745636463165283,105,,,,,,,,,
,78549,1.2399042844772339,105,,,,,,,,,
,78599,1.241257905960083,105,,,,,,,,,
,78649,1.3040162324905396,105,,,,,,,,,
,78699,1.2629066705703735,105,,,,,,,,,
,78749,1.155653476715088,105,,,,,,,,,
,78799,1.2434439659118652,105,,,,,,,,,
,78849,1.1206302642822266,105,,,,,,,,,
,78863,,105,1.1589155197143555,30.40500259399414,16.26388168334961,1.5529026985168457,12.588217735290527,,,,
,78863,,105,,,,,,32.162113189697266,18.819669723510742,1.470820426940918,11.871622085571289
0.00022532695776467476,78864,,,,,,,,,,,
,78899,0.8185326457023621,106,,,,,,,,,
,78949,1.0856335163116455,106,,,,,,,,,
,78999,1.0591487884521484,106,,,,,,,,,
,79049,1.0195882320404053,106,,,,,,,,,
,79099,1.3265559673309326,106,,,,,,,,,
,79149,1.08408784866333,106,,,,,,,,,
,79199,1.2528190612792969,106,,,,,,,,,
,79249,1.2133455276489258,106,,,,,,,,,
,79299,1.158750057220459,106,,,,,,,,,
,79349,1.3016643524169922,106,,,,,,,,,
,79399,1.1547908782958984,106,,,,,,,,,
,79449,1.1669820547103882,106,,,,,,,,,
,79499,1.2873389720916748,106,,,,,,,,,
,79549,1.2789499759674072,106,,,,,,,,,
,79599,1.2367393970489502,106,,,,,,,,,
,79607,,106,1.160385251045227,30.303787231445312,15.698182106018066,1.741469383239746,12.864134788513184,,,,
,79607,,106,,,,,,32.18522644042969,18.866113662719727,1.4933980703353882,11.825715065002441
0.00021604249566235817,79608,,,,,,,,,,,
,79649,1.204688549041748,107,,,,,,,,,
,79699,1.2378783226013184,107,,,,,,,,,
,79749,1.0771360397338867,107,,,,,,,,,
,79799,1.2394394874572754,107,,,,,,,,,
,79849,1.3143813610076904,107,,,,,,,,,
,79899,1.3714449405670166,107,,,,,,,,,
,79949,1.070441722869873,107,,,,,,,,,
,79999,1.0295655727386475,107,,,,,,,,,
,80049,1.2330207824707031,107,,,,,,,,,
,80099,1.2090917825698853,107,,,,,,,,,
,80149,1.1679749488830566,107,,,,,,,,,
,80199,1.066603422164917,107,,,,,,,,,
,80249,1.0824280977249146,107,,,,,,,,,
,80299,1.1629887819290161,107,,,,,,,,,
,80349,1.0773639678955078,107,,,,,,,,,
,80351,,107,1.1586418151855469,30.29685401916504,15.990737915039062,1.6166826486587524,12.689433097839355,,,,
,80351,,107,,,,,,32.02505874633789,18.875591278076172,1.479705572128296,11.669759750366211
0.00020690126647990965,80352,,,,,,,,,,,
,80399,1.2913168668746948,108,,,,,,,,,
,80449,1.1351869106292725,108,,,,,,,,,
,80499,1.1078457832336426,108,,,,,,,,,
,80549,1.0933620929718018,108,,,,,,,,,
,80599,1.1483726501464844,108,,,,,,,,,
,80649,1.2413026094436646,108,,,,,,,,,
,80699,1.2996563911437988,108,,,,,,,,,
,80749,1.0530887842178345,108,,,,,,,,,
,80799,1.20321524143219,108,,,,,,,,,
,80849,1.3760521411895752,108,,,,,,,,,
,80899,1.2043442726135254,108,,,,,,,,,
,80949,1.2956550121307373,108,,,,,,,,,
,80999,1.2212128639221191,108,,,,,,,,,
,81049,1.1013007164001465,108,,,,,,,,,
,81095,,108,1.1489289999008179,30.22614097595215,16.56891632080078,1.422569751739502,12.234654426574707,,,,
,81095,,108,,,,,,31.911815643310547,18.788902282714844,1.4745680093765259,11.648345947265625
0.00019790787310151043,81096,,,,,,,,,,,
,81099,1.0643796920776367,109,,,,,,,,,
,81149,1.1541671752929688,109,,,,,,,,,
,81199,1.3151334524154663,109,,,,,,,,,
,81249,1.0807147026062012,109,,,,,,,,,
,81299,1.1045849323272705,109,,,,,,,,,
,81349,1.2384337186813354,109,,,,,,,,,
,81399,1.2510490417480469,109,,,,,,,,,
,81449,1.1672402620315552,109,,,,,,,,,
,81499,1.1967781782150269,109,,,,,,,,,
,81549,1.2365796566009521,109,,,,,,,,,
,81599,1.0341086387634277,109,,,,,,,,,
,81649,1.0191457271575928,109,,,,,,,,,
,81699,1.2397242784500122,109,,,,,,,,,
,81749,0.9783647060394287,109,,,,,,,,,
,81799,1.2222518920898438,109,,,,,,,,,
,81839,,109,1.1533057689666748,30.252485275268555,16.44828987121582,1.468324899673462,12.335870742797852,,,,
,81839,,109,,,,,,31.659868240356445,18.687646865844727,1.4847102165222168,11.487510681152344
0.00018906684397156255,81840,,,,,,,,,,,
,81849,1.0581071376800537,110,,,,,,,,,
,81899,1.2369084358215332,110,,,,,,,,,
,81949,0.9631736278533936,110,,,,,,,,,
,81999,1.438796043395996,110,,,,,,,,,
,82049,1.2115848064422607,110,,,,,,,,,
,82099,1.2279515266418457,110,,,,,,,,,
,82149,1.1354385614395142,110,,,,,,,,,
,82199,1.094726324081421,110,,,,,,,,,
,82249,1.1915379762649536,110,,,,,,,,,
,82299,1.3303519487380981,110,,,,,,,,,
,82349,1.3791694641113281,110,,,,,,,,,
,82399,1.4562976360321045,110,,,,,,,,,
,82449,1.3653942346572876,110,,,,,,,,,
,82499,1.5013395547866821,110,,,,,,,,,
,82549,1.1982169151306152,110,,,,,,,,,
,82583,,110,1.1513186693191528,30.201183319091797,16.146028518676758,1.5196261405944824,12.535529136657715,,,,
,82583,,110,,,,,,31.815866470336914,18.78510284423828,1.4311691522598267,11.599595069885254
0.00018038263081448039,82584,,,,,,,,,,,
,82599,1.101228952407837,111,,,,,,,,,
,82649,1.2093714475631714,111,,,,,,,,,
,82699,1.0876291990280151,111,,,,,,,,,
,82749,1.1235778331756592,111,,,,,,,,,
,82799,1.1699546575546265,111,,,,,,,,,
,82849,1.3074817657470703,111,,,,,,,,,
,82899,1.395754098892212,111,,,,,,,,,
,82949,1.17811918258667,111,,,,,,,,,
,82999,1.372025728225708,111,,,,,,,,,
,83049,1.233351707458496,111,,,,,,,,,
,83099,1.2604719400405884,111,,,,,,,,,
,83149,1.03770911693573,111,,,,,,,,,
,83199,1.1427934169769287,111,,,,,,,,,
,83249,1.3136687278747559,111,,,,,,,,,
,83299,1.3177967071533203,111,,,,,,,,,
,83327,,111,1.1490602493286133,29.96270179748535,15.800785064697266,1.704033374786377,12.457884788513184,,,,
,83327,,111,,,,,,31.60833168029785,18.657304763793945,1.4744354486465454,11.476591110229492
0.0001718596063931135,83328,,,,,,,,,,,
,83349,0.9377610087394714,112,,,,,,,,,
,83399,1.26797616481781,112,,,,,,,,,
,83449,1.0521000623703003,112,,,,,,,,,
,83499,1.0911929607391357,112,,,,,,,,,
,83549,1.2711105346679688,112,,,,,,,,,
,83599,1.3179888725280762,112,,,,,,,,,
,83649,1.0335845947265625,112,,,,,,,,,
,83699,1.088949203491211,112,,,,,,,,,
,83749,1.087564468383789,112,,,,,,,,,
,83799,1.092834234237671,112,,,,,,,,,
,83849,1.1777513027191162,112,,,,,,,,,
,83899,1.1881340742111206,112,,,,,,,,,
,83949,1.1043787002563477,112,,,,,,,,,
,83999,1.2046470642089844,112,,,,,,,,,
,84049,1.0549781322479248,112,,,,,,,,,
,84071,,112,1.148240327835083,30.237234115600586,16.358165740966797,1.4378215074539185,12.441246032714844,,,,
,84071,,112,,,,,,31.402923583984375,18.479150772094727,1.4395906925201416,11.484183311462402
0.00016350206230692882,84072,,,,,,,,,,,
,84099,1.046534776687622,113,,,,,,,,,
,84149,1.2343833446502686,113,,,,,,,,,
,84199,1.29610276222229,113,,,,,,,,,
,84249,1.2702635526657104,113,,,,,,,,,
,84299,1.3622252941131592,113,,,,,,,,,
,84349,1.185305118560791,113,,,,,,,,,
,84399,1.2720084190368652,113,,,,,,,,,
,84449,0.9994676113128662,113,,,,,,,,,
,84499,1.202695608139038,113,,,,,,,,,
,84549,1.2167942523956299,113,,,,,,,,,
,84599,1.2433329820632935,113,,,,,,,,,
,84649,1.140505313873291,113,,,,,,,,,
,84699,1.1037445068359375,113,,,,,,,,,
,84749,0.9564622640609741,113,,,,,,,,,
,84799,1.1293306350708008,113,,,,,,,,,
,84815,,113,1.1514307260513306,30.172067642211914,16.161279678344727,1.5140801668167114,12.49670696258545,,,,
,84815,,113,,,,,,31.41349220275879,18.609193801879883,1.4284565448760986,11.375843048095703
0.00015531420683106105,84816,,,,,,,,,,,
,84849,1.1803994178771973,114,,,,,,,,,
,84899,1.09895920753479,114,,,,,,,,,
,84949,1.2354075908660889,114,,,,,,,,,
,84999,1.0822186470031738,114,,,,,,,,,
,85049,1.363675594329834,114,,,,,,,,,
,85099,1.1366188526153564,114,,,,,,,,,
,85149,1.1155258417129517,114,,,,,,,,,
,85199,1.0026646852493286,114,,,,,,,,,
,85249,1.0293254852294922,114,,,,,,,,,
,85299,1.0360068082809448,114,,,,,,,,,
,85349,1.1500146389007568,114,,,,,,,,,
,85399,1.0134515762329102,114,,,,,,,,,
,85449,1.346827745437622,114,,,,,,,,,
,85499,1.0803539752960205,114,,,,,,,,,
,85549,1.269466519355774,114,,,,,,,,,
,85559,,114,1.1469978094100952,29.92249298095703,15.555370330810547,1.6832355260849,12.683887481689453,,,,
,85559,,114,,,,,,31.227130889892578,18.510292053222656,1.4832605123519897,11.2335786819458
0.0001473001627973195,85560,,,,,,,,,,,
,85599,1.0903218984603882,115,,,,,,,,,
,85649,1.0910075902938843,115,,,,,,,,,
,85699,1.239696979522705,115,,,,,,,,,
,85749,1.213876724243164,115,,,,,,,,,
,85799,1.159658432006836,115,,,,,,,,,
,85849,1.2764809131622314,115,,,,,,,,,
,85899,1.061126947402954,115,,,,,,,,,
,85949,1.1732627153396606,115,,,,,,,,,
,85999,1.2591791152954102,115,,,,,,,,,
,86049,1.3402330875396729,115,,,,,,,,,
,86099,1.1902186870574951,115,,,,,,,,,
,86149,1.0438191890716553,115,,,,,,,,,
,86199,1.1703130006790161,115,,,,,,,,,
,86249,0.9861541986465454,115,,,,,,,,,
,86299,1.3502036333084106,115,,,,,,,,,
,86303,,115,1.1441503763198853,29.878124237060547,15.836833953857422,1.5750869512557983,12.466203689575195,,,,
,86303,,115,,,,,,31.257112503051758,18.46647834777832,1.4647338390350342,11.325900077819824
0.0001394639655182179,86304,,,,,,,,,,,
,86349,1.0845134258270264,116,,,,,,,,,
,86399,1.0485557317733765,116,,,,,,,,,
,86449,1.2772729396820068,116,,,,,,,,,
,86499,1.2869627475738525,116,,,,,,,,,
,86549,0.9139360785484314,116,,,,,,,,,
,86599,1.074419617652893,116,,,,,,,,,
,86649,1.0608270168304443,116,,,,,,,,,
,86699,1.1098777055740356,116,,,,,,,,,
,86749,1.2633140087127686,116,,,,,,,,,
,86799,1.2234563827514648,116,,,,,,,,,
,86849,1.233169436454773,116,,,,,,,,,
,86899,1.1108503341674805,116,,,,,,,,,
,86949,1.0695343017578125,116,,,,,,,,,
,86999,0.9352277517318726,116,,,,,,,,,
,87047,,116,1.1456512212753296,29.742246627807617,15.50545597076416,1.7303773164749146,12.506412506103516,,,,
,87047,,116,,,,,,31.091209411621094,18.445697784423828,1.4600398540496826,11.18547248840332
0.00013180956075507333,87048,,,,,,,,,,,
,87049,1.2333844900131226,117,,,,,,,,,
,87099,1.1794724464416504,117,,,,,,,,,
,87149,1.059389352798462,117,,,,,,,,,
,87199,1.1610573530197144,117,,,,,,,,,
,87249,1.122331976890564,117,,,,,,,,,
,87299,1.089309573173523,117,,,,,,,,,
,87349,1.0960533618927002,117,,,,,,,,,
,87399,1.1220123767852783,117,,,,,,,,,
,87449,1.0974628925323486,117,,,,,,,,,
,87499,1.0747735500335693,117,,,,,,,,,
,87549,1.3792412281036377,117,,,,,,,,,
,87599,1.1406519412994385,117,,,,,,,,,
,87649,1.0837585926055908,117,,,,,,,,,
,87699,1.1338768005371094,117,,,,,,,,,
,87749,1.1162135601043701,117,,,,,,,,,
,87791,,117,1.1483641862869263,29.914175033569336,15.918639183044434,1.5709275007247925,12.42460823059082,,,,
,87791,,117,,,,,,31.122419357299805,18.39311981201172,1.4861505031585693,11.243148803710938
0.0001243408027311963,87792,,,,,,,,,,,
,87799,1.1204698085784912,118,,,,,,,,,
,87849,1.246636986732483,118,,,,,,,,,
,87899,1.045569896697998,118,,,,,,,,,
,87949,1.1492459774017334,118,,,,,,,,,
,87999,1.0387457609176636,118,,,,,,,,,
,88049,1.0702799558639526,118,,,,,,,,,
,88099,1.1845800876617432,118,,,,,,,,,
,88149,1.2040287256240845,118,,,,,,,,,
,88199,0.9425256848335266,118,,,,,,,,,
,88249,1.2356431484222412,118,,,,,,,,,
,88299,1.2327218055725098,118,,,,,,,,,
,88349,1.0469465255737305,118,,,,,,,,,
,88399,1.4749090671539307,118,,,,,,,,,
,88449,0.9934602975845337,118,,,,,,,,,
,88499,1.153517723083496,118,,,,,,,,,
,88535,,118,1.1427074670791626,29.85732650756836,15.972713470458984,1.5695409774780273,12.315073013305664,,,,
,88535,,118,,,,,,31.050622940063477,18.430500030517578,1.4496914148330688,11.170431137084961
0.00011706145219117339,88536,,,,,,,,,,,
,88549,1.338261365890503,119,,,,,,,,,
,88599,1.0663182735443115,119,,,,,,,,,
,88649,1.1168495416641235,119,,,,,,,,,
,88699,1.1363680362701416,119,,,,,,,,,
,88749,0.941528856754303,119,,,,,,,,,
,88799,1.1897516250610352,119,,,,,,,,,
,88849,1.1736981868743896,119,,,,,,,,,
,88899,1.014029860496521,119,,,,,,,,,
,88949,1.1324726343154907,119,,,,,,,,,
,88999,1.0758647918701172,119,,,,,,,,,
,89049,1.061232089996338,119,,,,,,,,,
,89099,1.223495602607727,119,,,,,,,,,
,89149,1.1274633407592773,119,,,,,,,,,
,89199,1.1155155897140503,119,,,,,,,,,
,89249,1.0145584344863892,119,,,,,,,,,
,89279,,119,1.1395220756530762,29.818504333496094,15.870110511779785,1.5737004280090332,12.374692916870117,,,,
,89279,,119,,,,,,30.928007125854492,18.372835159301758,1.4718257188796997,11.08334732055664
0.00010997517450721906,89280,,,,,,,,,,,
,89299,1.0638926029205322,120,,,,,,,,,
,89349,1.1544301509857178,120,,,,,,,,,
,89399,1.2358866930007935,120,,,,,,,,,
,89449,1.1106891632080078,120,,,,,,,,,
,89499,1.1780447959899902,120,,,,,,,,,
,89549,1.5380098819732666,120,,,,,,,,,
,89599,1.1278735399246216,120,,,,,,,,,
,89649,1.2350965738296509,120,,,,,,,,,
,89699,1.1556792259216309,120,,,,,,,,,
,89749,1.0506386756896973,120,,,,,,,,,
,89799,1.1910088062286377,120,,,,,,,,,
,89849,1.2362127304077148,120,,,,,,,,,
,89899,1.0518949031829834,120,,,,,,,,,
,89949,1.2604765892028809,120,,,,,,,,,
,89999,1.3061506748199463,120,,,,,,,,,
,90023,,120,1.1438552141189575,29.75888442993164,15.694023132324219,1.5986578464508057,12.466203689575195,,,,
,90023,,120,,,,,,30.778263092041016,18.295997619628906,1.4763554334640503,11.00590991973877
0.00010308553783355038,90024,,,,,,,,,,,
,90049,1.0702078342437744,121,,,,,,,,,
,90099,1.2041442394256592,121,,,,,,,,,
,90149,1.1258052587509155,121,,,,,,,,,
,90199,1.0418039560317993,121,,,,,,,,,
,90249,1.0457737445831299,121,,,,,,,,,
,90299,1.1824400424957275,121,,,,,,,,,
,90349,1.0992000102996826,121,,,,,,,,,
,90399,1.0850803852081299,121,,,,,,,,,
,90449,1.1158335208892822,121,,,,,,,,,
,90499,1.108668565750122,121,,,,,,,,,
,90549,1.1039228439331055,121,,,,,,,,,
,90599,1.2329189777374268,121,,,,,,,,,
,90649,1.0564699172973633,121,,,,,,,,,
,90699,1.029836893081665,121,,,,,,,,,
,90749,1.288873314857483,121,,,,,,,,,
,90767,,121,1.1418745517730713,29.743633270263672,15.709274291992188,1.6513456106185913,12.383012771606445,,,,
,90767,,121,,,,,,30.994178771972656,18.49578857421875,1.4666675329208374,11.031722068786621
9.639601130971376e-05,90768,,,,,,,,,,,
,90799,0.9903079867362976,122,,,,,,,,,
,90849,1.1175442934036255,122,,,,,,,,,
,90899,1.0570869445800781,122,,,,,,,,,
,90949,0.9963312745094299,122,,,,,,,,,
,90999,1.1780718564987183,122,,,,,,,,,
,91049,1.150831937789917,122,,,,,,,,,
,91099,1.2252687215805054,122,,,,,,,,,
,91149,1.1092478036880493,122,,,,,,,,,
,91199,1.156158208847046,122,,,,,,,,,
,91249,1.1135187149047852,122,,,,,,,,,
,91299,1.1495323181152344,122,,,,,,,,,
,91349,1.0342533588409424,122,,,,,,,,,
,91399,1.4172148704528809,122,,,,,,,,,
,91449,1.118156909942627,122,,,,,,,,,
,91499,1.029870867729187,122,,,,,,,,,
,91511,,122,1.1406786441802979,29.70342254638672,15.882589340209961,1.5681544542312622,12.252679824829102,,,,
,91511,,122,,,,,,30.717084884643555,18.243797302246094,1.4671608209609985,11.00612735748291
8.9909963313769e-05,91512,,,,,,,,,,,
,91549,1.0963129997253418,123,,,,,,,,,
,91599,1.3654441833496094,123,,,,,,,,,
,91649,1.128218173980713,123,,,,,,,,,
,91699,1.0648961067199707,123,,,,,,,,,
,91749,1.1432265043258667,123,,,,,,,,,
,91799,1.1972090005874634,123,,,,,,,,,
,91849,1.1570665836334229,123,,,,,,,,,
,91899,1.0702775716781616,123,,,,,,,,,
,91949,1.2004261016845703,123,,,,,,,,,
,91999,0.9913222193717957,123,,,,,,,,,
,92049,1.113501787185669,123,,,,,,,,,
,92099,1.1329741477966309,123,,,,,,,,,
,92149,1.2169675827026367,123,,,,,,,,,
,92199,1.3558738231658936,123,,,,,,,,,
,92249,1.079697847366333,123,,,,,,,,,
,92255,,123,1.1424498558044434,29.668760299682617,15.603899002075195,1.6236152648925781,12.441246032714844,,,,
,92255,,123,,,,,,30.76409149169922,18.345897674560547,1.4528017044067383,10.96539306640625
8.363065976620929e-05,92256,,,,,,,,,,,
,92299,1.1694273948669434,124,,,,,,,,,
,92349,1.1382699012756348,124,,,,,,,,,
,92399,1.1372716426849365,124,,,,,,,,,
,92449,1.0660154819488525,124,,,,,,,,,
,92499,1.1558449268341064,124,,,,,,,,,
,92549,1.1777833700180054,124,,,,,,,,,
,92599,1.233293056488037,124,,,,,,,,,
,92649,1.1548950672149658,124,,,,,,,,,
,92699,1.1536109447479248,124,,,,,,,,,
,92749,1.2864296436309814,124,,,,,,,,,
,92799,1.2681372165679932,124,,,,,,,,,
,92849,1.2369048595428467,124,,,,,,,,,
,92899,1.0952305793762207,124,,,,,,,,,
,92949,1.273946762084961,124,,,,,,,,,
,92999,1.0200539827346802,124,,,,,,,,,
,92999,,124,1.1393333673477173,29.553678512573242,15.540119171142578,1.6735299825668335,12.340030670166016,,,,
,92999,,124,,,,,,30.58832550048828,18.237079620361328,1.4140784740447998,10.93716812133789
7.756126248547204e-05,93000,,,,,,,,,,,
,93049,1.5187139511108398,125,,,,,,,,,
,93099,0.9788987040519714,125,,,,,,,,,
,93149,0.9752345085144043,125,,,,,,,,,
,93199,0.9876886010169983,125,,,,,,,,,
,93249,1.0786166191101074,125,,,,,,,,,
,93299,0.9962720274925232,125,,,,,,,,,
,93349,1.1462525129318237,125,,,,,,,,,
,93399,0.9816800355911255,125,,,,,,,,,
,93449,1.1048824787139893,125,,,,,,,,,
,93499,1.1352375745773315,125,,,,,,,,,
,93549,1.1166250705718994,125,,,,,,,,,
,93599,1.280061960220337,125,,,,,,,,,
,93649,1.1418265104293823,125,,,,,,,,,
,93699,0.9955778121948242,125,,,,,,,,,
,93743,,125,1.1362135410308838,29.514856338500977,15.412559509277344,1.7068064212799072,12.395490646362305,,,,
,93743,,125,,,,,,30.363298416137695,18.11597442626953,1.4392127990722656,10.808111190795898
7.170482759586784e-05,93744,,,,,,,,,,,
,93749,1.045790672302246,126,,,,,,,,,
,93799,0.9934486746788025,126,,,,,,,,,
,93849,1.0569922924041748,126,,,,,,,,,
,93899,0.9730993509292603,126,,,,,,,,,
,93949,1.0040572881698608,126,,,,,,,,,
,93999,1.0378029346466064,126,,,,,,,,,
,94049,1.241642951965332,126,,,,,,,,,
,94099,1.0567693710327148,126,,,,,,,,,
,94149,1.3403922319412231,126,,,,,,,,,
,94199,0.9572170972824097,126,,,,,,,,,
,94249,1.233992338180542,126,,,,,,,,,
,94299,1.013749122619629,126,,,,,,,,,
,94349,1.0708822011947632,126,,,,,,,,,
,94399,0.9765043258666992,126,,,,,,,,,
,94449,0.9790534973144531,126,,,,,,,,,
,94487,,126,1.138265609741211,29.840688705444336,16.116910934448242,1.4627788066864014,12.260998725891113,,,,
,94487,,126,,,,,,30.386249542236328,18.179386138916016,1.4419434070587158,10.764920234680176
6.606430398873014e-05,94488,,,,,,,,,,,
,94499,1.1529982089996338,127,,,,,,,,,
,94549,1.0077897310256958,127,,,,,,,,,
,94599,1.1802812814712524,127,,,,,,,,,
,94649,1.1763570308685303,127,,,,,,,,,
,94699,1.1845886707305908,127,,,,,,,,,
,94749,1.1187984943389893,127,,,,,,,,,
,94799,1.1624418497085571,127,,,,,,,,,
,94849,1.3135398626327515,127,,,,,,,,,
,94899,1.1972614526748657,127,,,,,,,,,
,94949,1.2526028156280518,127,,,,,,,,,
,94999,1.0493168830871582,127,,,,,,,,,
,95049,1.164933443069458,127,,,,,,,,,
,95099,1.1660566329956055,127,,,,,,,,,
,95149,1.166435718536377,127,,,,,,,,,
,95199,1.0842645168304443,127,,,,,,,,,
,95231,,127,1.1376692056655884,29.64241600036621,15.775827407836914,1.5806330442428589,12.285956382751465,,,,
,95231,,127,,,,,,30.55190086364746,18.177011489868164,1.4603646993637085,10.914525985717773
6.064253183755934e-05,95232,,,,,,,,,,,
,95249,1.0820804834365845,128,,,,,,,,,
,95299,0.9928221702575684,128,,,,,,,,,
,95349,1.1268490552902222,128,,,,,,,,,
,95399,1.2682900428771973,128,,,,,,,,,
,95449,1.140594482421875,128,,,,,,,,,
,95499,1.215484857559204,128,,,,,,,,,
,95549,1.0822911262512207,128,,,,,,,,,
,95599,1.5883245468139648,128,,,,,,,,,
,95649,1.271446704864502,128,,,,,,,,,
,95699,1.113285779953003,128,,,,,,,,,
,95749,1.0753355026245117,128,,,,,,,,,
,95799,1.0927460193634033,128,,,,,,,,,
,95849,1.0222246646881104,128,,,,,,,,,
,95899,1.1657462120056152,128,,,,,,,,,
,95949,1.1376545429229736,128,,,,,,,,,
,95975,,128,1.1345281600952148,29.65073585510254,15.824356079101562,1.5501296520233154,12.276249885559082,,,,
,95975,,128,,,,,,30.410036087036133,18.18639373779297,1.4268014430999756,10.79684066772461
5.544224116791026e-05,95976,,,,,,,,,,,
,95999,1.1292545795440674,129,,,,,,,,,
,96049,1.0809688568115234,129,,,,,,,,,
,96099,1.198138952255249,129,,,,,,,,,
,96149,1.2020190954208374,129,,,,,,,,,
,96199,1.2537304162979126,129,,,,,,,,,
,96249,1.0501735210418701,129,,,,,,,,,
,96299,1.2516577243804932,129,,,,,,,,,
,96349,1.2072207927703857,129,,,,,,,,,
,96399,1.0438164472579956,129,,,,,,,,,
,96449,1.2199773788452148,129,,,,,,,,,
,96499,1.2948484420776367,129,,,,,,,,,
,96549,1.0148425102233887,129,,,,,,,,,
,96599,1.0581942796707153,129,,,,,,,,,
,96649,1.0897190570831299,129,,,,,,,,,
,96699,1.0606577396392822,129,,,,,,,,,
,96719,,129,1.133256435394287,29.582796096801758,15.782759666442871,1.5376509428024292,12.262385368347168,,,,
,96719,,129,,,,,,30.288497924804688,18.03550910949707,1.421360731124878,10.831626892089844
5.0466050482741666e-05,96720,,,,,,,,,,,
,96749,1.0332984924316406,130,,,,,,,,,
,96799,1.1369781494140625,130,,,,,,,,,
,96849,1.246382713317871,130,,,,,,,,,
,96899,1.2095179557800293,130,,,,,,,,,
,96949,1.0567352771759033,130,,,,,,,,,
,96999,1.0805938243865967,130,,,,,,,,,
,97049,1.0194748640060425,130,,,,,,,,,
,97099,0.9627577066421509,130,,,,,,,,,
,97149,1.1220424175262451,130,,,,,,,,,
,97199,1.0467300415039062,130,,,,,,,,,
,97249,1.0627176761627197,130,,,,,,,,,
,97299,1.0980596542358398,130,,,,,,,,,
,97349,1.1359858512878418,130,,,,,,,,,
,97399,0.95443195104599,130,,,,,,,,,
,97449,1.2754848003387451,130,,,,,,,,,
,97463,,130,1.1362559795379639,29.550905227661133,15.64826774597168,1.627774715423584,12.274864196777344,,,,
,97463,,130,,,,,,30.367916107177734,18.229251861572266,1.4271496534347534,10.71151351928711
4.5716465443921456e-05,97464,,,,,,,,,,,
,97499,1.121476411819458,131,,,,,,,,,
,97549,1.1768890619277954,131,,,,,,,,,
,97599,1.064278483390808,131,,,,,,,,,
,97649,0.9854589700698853,131,,,,,,,,,
,97699,1.081885576248169,131,,,,,,,,,
,97749,1.039347767829895,131,,,,,,,,,
,97799,1.116424560546875,131,,,,,,,,,
,97849,1.082261085510254,131,,,,,,,,,
,97899,1.0221624374389648,131,,,,,,,,,
,97949,1.155618667602539,131,,,,,,,,,
,97999,1.1366006135940552,131,,,,,,,,,
,98049,1.0053856372833252,131,,,,,,,,,
,98099,1.1711797714233398,131,,,,,,,,,
,98149,1.3021029233932495,131,,,,,,,,,
,98199,0.9034953713417053,131,,,,,,,,,
,98207,,131,1.1321227550506592,29.57170295715332,15.863178253173828,1.5584487915039062,12.150076866149902,,,,
,98207,,131,,,,,,30.217891693115234,18.13833999633789,1.4189814329147339,10.660569190979004
4.1195877610550415e-05,98208,,,,,,,,,,,
,98249,0.9579758048057556,132,,,,,,,,,
,98299,1.1795434951782227,132,,,,,,,,,
,98349,1.4573254585266113,132,,,,,,,,,
,98399,1.1937286853790283,132,,,,,,,,,
,98449,1.2649199962615967,132,,,,,,,,,
,98499,1.0251760482788086,132,,,,,,,,,
,98549,1.0439674854278564,132,,,,,,,,,
,98599,0.9867405891418457,132,,,,,,,,,
,98649,1.1750997304916382,132,,,,,,,,,
,98699,1.0047590732574463,132,,,,,,,,,
,98749,0.9402268528938293,132,,,,,,,,,
,98799,1.149397850036621,132,,,,,,,,,
,98849,1.2375099658966064,132,,,,,,,,,
,98899,1.2414207458496094,132,,,,,,,,,
,98949,0.9315851330757141,132,,,,,,,,,
,98951,,132,1.132339358329773,29.568931579589844,15.900613784790039,1.5085340738296509,12.159782409667969,,,,
,98951,,132,,,,,,30.169944763183594,18.099000930786133,1.3911641836166382,10.679780960083008
3.690656323474008e-05,98952,,,,,,,,,,,
,98999,1.05779230594635,133,,,,,,,,,
,99049,1.025901436805725,133,,,,,,,,,
,99099,1.1492547988891602,133,,,,,,,,,
,99149,1.122361421585083,133,,,,,,,,,
,99199,1.0650818347930908,133,,,,,,,,,
,99249,1.2433490753173828,133,,,,,,,,,
,99299,1.0222523212432861,133,,,,,,,,,
,99349,1.1073541641235352,133,,,,,,,,,
,99399,0.9580216407775879,133,,,,,,,,,
,99449,1.061838984489441,133,,,,,,,,,
,99499,1.1616321802139282,133,,,,,,,,,
,99549,1.1808009147644043,133,,,,,,,,,
,99599,1.0970401763916016,133,,,,,,,,,
,99649,1.0399017333984375,133,,,,,,,,,
,99695,,133,1.1321020126342773,29.555065155029297,15.963007926940918,1.5029879808425903,12.089070320129395,,,,
,99695,,133,,,,,,30.213783264160156,18.10281753540039,1.43143630027771,10.679530143737793
3.285068211545125e-05,99696,,,,,,,,,,,
,99699,1.065208911895752,134,,,,,,,,,
,99749,1.2433297634124756,134,,,,,,,,,
,99799,1.058763027191162,134,,,,,,,,,
,99849,1.0402379035949707,134,,,,,,,,,
,99899,1.0946762561798096,134,,,,,,,,,
,99949,1.198277235031128,134,,,,,,,,,
,99999,1.1441292762756348,134,,,,,,,,,
,100049,1.1448142528533936,134,,,,,,,,,
,100099,1.3275285959243774,134,,,,,,,,,
,100149,1.3709805011749268,134,,,,,,,,,
,100199,1.0406492948532104,134,,,,,,,,,
,100249,1.147823452949524,134,,,,,,,,,
,100299,0.9730234146118164,134,,,,,,,,,
,100349,1.1809093952178955,134,,,,,,,,,
,100399,1.0632559061050415,134,,,,,,,,,
,100439,,134,1.1334874629974365,29.541200637817383,15.918639183044434,1.509920597076416,12.112641334533691,,,,
,100439,,134,,,,,,30.1318302154541,18.20008087158203,1.4065190553665161,10.52523136138916
