lr-Adam,step,train/loss,epoch,val/loss,val/CER,val/IER,val/DER,val/SER,train/CER,train/IER,train/DER,train/SER,test/loss,test/CER,test/IER,test/DER,test/SER
1e-08,0,,,,,,,,,,,,,,,,
,49,212.30804443359375,0,,,,,,,,,,,,,,
,99,231.2191619873047,0,,,,,,,,,,,,,,
,149,145.4842529296875,0,,,,,,,,,,,,,,
,199,130.73587036132812,0,,,,,,,,,,,,,,
,249,142.93356323242188,0,,,,,,,,,,,,,,
,299,128.4447021484375,0,,,,,,,,,,,,,,
,349,137.84129333496094,0,,,,,,,,,,,,,,
,399,148.67068481445312,0,,,,,,,,,,,,,,
,449,151.03150939941406,0,,,,,,,,,,,,,,
,499,133.66387939453125,0,,,,,,,,,,,,,,
,549,132.23377990722656,0,,,,,,,,,,,,,,
,599,212.62893676757812,0,,,,,,,,,,,,,,
,649,156.24862670898438,0,,,,,,,,,,,,,,
,699,272.8243713378906,0,,,,,,,,,,,,,,
,743,,0,170.32672119140625,2508.658935546875,0.02079780399799347,2444.4990234375,64.1390380859375,,,,,,,,,
,743,,0,,,,,,2493.30224609375,0.021571431308984756,2428.641357421875,64.63927459716797,,,,,
0.00011112,744,,,,,,,,,,,,,,,,
,749,163.77247619628906,1,,,,,,,,,,,,,,
,799,5.111602306365967,1,,,,,,,,,,,,,,
,849,4.0184831619262695,1,,,,,,,,,,,,,,
,899,4.237006187438965,1,,,,,,,,,,,,,,
,949,3.8655474185943604,1,,,,,,,,,,,,,,
,999,3.7024970054626465,1,,,,,,,,,,,,,,
,1049,3.5148632526397705,1,,,,,,,,,,,,,,
,1099,3.7114837169647217,1,,,,,,,,,,,,,,
,1149,3.5247044563293457,1,,,,,,,,,,,,,,
,1199,3.4603688716888428,1,,,,,,,,,,,,,,
,1249,3.63499116897583,1,,,,,,,,,,,,,,
,1299,3.6619644165039062,1,,,,,,,,,,,,,,
,1349,3.6787567138671875,1,,,,,,,,,,,,,,
,1399,3.470970630645752,1,,,,,,,,,,,,,,
,1449,3.38217830657959,1,,,,,,,,,,,,,,
,1487,,1,3.4894750118255615,100.0,100.0,0.0,0.0,,,,,,,,,
,1487,,1,,,,,,116.95374298095703,97.95159912109375,17.439434051513672,1.5627113580703735,,,,,
0.00022223000000000002,1488,,,,,,,,,,,,,,,,
,1499,3.4836342334747314,2,,,,,,,,,,,,,,
,1549,3.5426828861236572,2,,,,,,,,,,,,,,
,1599,3.6224653720855713,2,,,,,,,,,,,,,,
,1649,3.3427977561950684,2,,,,,,,,,,,,,,
,1699,3.3937416076660156,2,,,,,,,,,,,,,,
,1749,3.5679922103881836,2,,,,,,,,,,,,,,
,1799,3.3576996326446533,2,,,,,,,,,,,,,,
,1849,3.360983371734619,2,,,,,,,,,,,,,,
,1899,3.563396453857422,2,,,,,,,,,,,,,,
,1949,3.4279606342315674,2,,,,,,,,,,,,,,
,1999,3.3891448974609375,2,,,,,,,,,,,,,,
,2049,3.3099331855773926,2,,,,,,,,,,,,,,
,2099,3.5569655895233154,2,,,,,,,,,,,,,,
,2149,3.35284423828125,2,,,,,,,,,,,,,,
,2199,3.3775744438171387,2,,,,,,,,,,,,,,
,2231,,2,3.3919830322265625,100.0,100.0,0.0,0.0,,,,,,,,,
,2231,,2,,,,,,100.0,100.0,0.0,0.0,,,,,
0.00033334,2232,,,,,,,,,,,,,,,,
,2249,3.3554883003234863,3,,,,,,,,,,,,,,
,2299,3.3189361095428467,3,,,,,,,,,,,,,,
,2349,3.324282169342041,3,,,,,,,,,,,,,,
,2399,3.354170799255371,3,,,,,,,,,,,,,,
,2449,3.3083081245422363,3,,,,,,,,,,,,,,
,2499,3.353858709335327,3,,,,,,,,,,,,,,
,2549,3.361325979232788,3,,,,,,,,,,,,,,
,2599,3.343041181564331,3,,,,,,,,,,,,,,
,2649,3.4423041343688965,3,,,,,,,,,,,,,,
,2699,3.558009624481201,3,,,,,,,,,,,,,,
,2749,3.46161150932312,3,,,,,,,,,,,,,,
,2799,3.3588504791259766,3,,,,,,,,,,,,,,
,2849,3.304624319076538,3,,,,,,,,,,,,,,
,2899,3.3313376903533936,3,,,,,,,,,,,,,,
,2949,3.3006091117858887,3,,,,,,,,,,,,,,
,2975,,3,3.378257989883423,100.0,100.0,0.0,0.0,,,,,,,,,
,2975,,3,,,,,,100.0,100.0,0.0,0.0,,,,,
0.00044445,2976,,,,,,,,,,,,,,,,
,2999,3.426065444946289,4,,,,,,,,,,,,,,
,3049,3.393355131149292,4,,,,,,,,,,,,,,
,3099,3.3817644119262695,4,,,,,,,,,,,,,,
,3149,3.418381690979004,4,,,,,,,,,,,,,,
,3199,3.319807529449463,4,,,,,,,,,,,,,,
,3249,3.3030080795288086,4,,,,,,,,,,,,,,
,3299,3.3909759521484375,4,,,,,,,,,,,,,,
,3349,3.2422866821289062,4,,,,,,,,,,,,,,
,3399,3.3435091972351074,4,,,,,,,,,,,,,,
,3449,3.3140180110931396,4,,,,,,,,,,,,,,
,3499,3.267085075378418,4,,,,,,,,,,,,,,
,3549,3.315168619155884,4,,,,,,,,,,,,,,
,3599,3.3492045402526855,4,,,,,,,,,,,,,,
,3649,3.319502830505371,4,,,,,,,,,,,,,,
,3699,3.2914316654205322,4,,,,,,,,,,,,,,
,3719,,4,3.2754621505737305,100.0,100.0,0.0,0.0,,,,,,,,,
,3719,,4,,,,,,100.0,100.0,0.0,0.0,,,,,
0.00055556,3720,,,,,,,,,,,,,,,,
,3749,3.2333450317382812,5,,,,,,,,,,,,,,
,3799,3.5500545501708984,5,,,,,,,,,,,,,,
,3849,3.0322554111480713,5,,,,,,,,,,,,,,
,3899,3.414832353591919,5,,,,,,,,,,,,,,
,3949,3.239692211151123,5,,,,,,,,,,,,,,
,3999,3.288055419921875,5,,,,,,,,,,,,,,
,4049,3.3673441410064697,5,,,,,,,,,,,,,,
,4099,3.2076988220214844,5,,,,,,,,,,,,,,
,4149,3.264364004135132,5,,,,,,,,,,,,,,
,4199,3.272831439971924,5,,,,,,,,,,,,,,
,4249,3.4050800800323486,5,,,,,,,,,,,,,,
,4299,3.0508065223693848,5,,,,,,,,,,,,,,
,4349,3.272568464279175,5,,,,,,,,,,,,,,
,4399,3.2005057334899902,5,,,,,,,,,,,,,,
,4449,3.364698886871338,5,,,,,,,,,,,,,,
,4463,,5,3.1406900882720947,100.0,100.0,0.0,0.0,,,,,,,,,
,4463,,5,,,,,,100.0,100.0,0.0,0.0,,,,,
0.00066667,4464,,,,,,,,,,,,,,,,
,4499,3.4575982093811035,6,,,,,,,,,,,,,,
,4549,3.3195886611938477,6,,,,,,,,,,,,,,
,4599,2.975817918777466,6,,,,,,,,,,,,,,
,4649,3.24263596534729,6,,,,,,,,,,,,,,
,4699,3.7236328125,6,,,,,,,,,,,,,,
,4749,3.086181640625,6,,,,,,,,,,,,,,
,4799,3.2135565280914307,6,,,,,,,,,,,,,,
,4849,3.1820359230041504,6,,,,,,,,,,,,,,
,4899,3.2536373138427734,6,,,,,,,,,,,,,,
,4949,3.3033080101013184,6,,,,,,,,,,,,,,
,4999,3.2007837295532227,6,,,,,,,,,,,,,,
,5049,3.0845389366149902,6,,,,,,,,,,,,,,
,5099,3.136990785598755,6,,,,,,,,,,,,,,
,5149,3.1051478385925293,6,,,,,,,,,,,,,,
,5199,3.0378403663635254,6,,,,,,,,,,,,,,
,5207,,6,3.0054659843444824,99.99723052978516,99.99584197998047,0.0,0.0013865202199667692,,,,,,,,,
,5207,,6,,,,,,99.99774169921875,99.99742126464844,0.0,0.0003223020175937563,,,,,
0.0007777799999999999,5208,,,,,,,,,,,,,,,,
,5249,3.173553705215454,7,,,,,,,,,,,,,,
,5299,3.199105978012085,7,,,,,,,,,,,,,,
,5349,3.110994338989258,7,,,,,,,,,,,,,,
,5399,3.036860227584839,7,,,,,,,,,,,,,,
,5449,3.0634312629699707,7,,,,,,,,,,,,,,
,5499,2.9968414306640625,7,,,,,,,,,,,,,,
,5549,2.906795024871826,7,,,,,,,,,,,,,,
,5599,2.948608160018921,7,,,,,,,,,,,,,,
,5649,3.214057683944702,7,,,,,,,,,,,,,,
,5699,2.9565601348876953,7,,,,,,,,,,,,,,
,5749,3.025545120239258,7,,,,,,,,,,,,,,
,5799,3.011962413787842,7,,,,,,,,,,,,,,
,5849,2.9407217502593994,7,,,,,,,,,,,,,,
,5899,2.9713335037231445,7,,,,,,,,,,,,,,
,5949,2.8799691200256348,7,,,,,,,,,,,,,,
,5951,,7,2.841797113418579,99.74765014648438,99.73101806640625,0.0,0.016638243570923805,,,,,,,,,
,5951,,7,,,,,,99.91789245605469,99.91210174560547,0.0,0.005795645527541637,,,,,
0.0008888899999999999,5952,,,,,,,,,,,,,,,,
,5999,3.0784425735473633,8,,,,,,,,,,,,,,
,6049,2.828458786010742,8,,,,,,,,,,,,,,
,6099,3.0284268856048584,8,,,,,,,,,,,,,,
,6149,3.0890467166900635,8,,,,,,,,,,,,,,
,6199,2.9863743782043457,8,,,,,,,,,,,,,,
,6249,2.9529945850372314,8,,,,,,,,,,,,,,
,6299,2.9302902221679688,8,,,,,,,,,,,,,,
,6349,2.811889171600342,8,,,,,,,,,,,,,,
,6399,2.9187817573547363,8,,,,,,,,,,,,,,
,6449,2.778993606567383,8,,,,,,,,,,,,,,
,6499,2.980231285095215,8,,,,,,,,,,,,,,
,6549,2.7866148948669434,8,,,,,,,,,,,,,,
,6599,2.8072147369384766,8,,,,,,,,,,,,,,
,6649,2.8886404037475586,8,,,,,,,,,,,,,,
,6695,,8,2.6246402263641357,98.67726135253906,98.54692840576172,0.0013865202199667692,0.12894637882709503,,,,,,,,,
,6695,,8,,,,,,99.3389663696289,99.27837371826172,0.0006445936160162091,0.05994720757007599,,,,,
0.001,6696,,,,,,,,,,,,,,,,
,6699,2.687547206878662,9,,,,,,,,,,,,,,
,6749,2.935762882232666,9,,,,,,,,,,,,,,
,6799,2.670802354812622,9,,,,,,,,,,,,,,
,6849,2.74371600151062,9,,,,,,,,,,,,,,
,6899,2.944139242172241,9,,,,,,,,,,,,,,
,6949,2.697352409362793,9,,,,,,,,,,,,,,
,6999,2.8201377391815186,9,,,,,,,,,,,,,,
,7049,2.810781955718994,9,,,,,,,,,,,,,,
,7099,2.542166233062744,9,,,,,,,,,,,,,,
,7149,2.444993019104004,9,,,,,,,,,,,,,,
,7199,2.7033233642578125,9,,,,,,,,,,,,,,
,7249,3.013094902038574,9,,,,,,,,,,,,,,
,7299,2.567986011505127,9,,,,,,,,,,,,,,
,7349,2.756892204284668,9,,,,,,,,,,,,,,
,7399,2.5375447273254395,9,,,,,,,,,,,,,,
,7439,,9,2.4012064933776855,92.27985382080078,91.11518096923828,0.04852820932865143,1.116148829460144,,,,,,,,,
,7439,,9,,,,,,97.04576873779297,96.6883316040039,0.005796391982585192,0.3516477942466736,,,,,
0.001,7440,,,,,,,,,,,,,,,,
,7449,2.425549030303955,10,,,,,,,,,,,,,,
,7499,2.7251977920532227,10,,,,,,,,,,,,,,
,7549,2.6667542457580566,10,,,,,,,,,,,,,,
,7599,2.393734931945801,10,,,,,,,,,,,,,,
,7649,2.598792314529419,10,,,,,,,,,,,,,,
,7699,2.5499837398529053,10,,,,,,,,,,,,,,
,7749,2.576510190963745,10,,,,,,,,,,,,,,
,7799,2.3004167079925537,10,,,,,,,,,,,,,,
,7849,2.495793104171753,10,,,,,,,,,,,,,,
,7899,2.660372734069824,10,,,,,,,,,,,,,,
,7949,2.6792359352111816,10,,,,,,,,,,,,,,
,7999,2.640385627746582,10,,,,,,,,,,,,,,
,8049,2.4368083477020264,10,,,,,,,,,,,,,,
,8099,2.385791540145874,10,,,,,,,,,,,,,,
,8149,2.4246973991394043,10,,,,,,,,,,,,,,
,8183,,10,2.164220094680786,76.1241226196289,67.4167709350586,0.7071253061294556,8.000222206115723,,,,,,,,,
,8183,,10,,,,,,87.1734390258789,82.42943572998047,0.2530732750892639,4.4909234046936035,,,,,
0.000999874243353782,8184,,,,,,,,,,,,,,,,
,8199,2.448761463165283,11,,,,,,,,,,,,,,
,8249,2.612687110900879,11,,,,,,,,,,,,,,
,8299,2.4256198406219482,11,,,,,,,,,,,,,,
,8349,2.3941965103149414,11,,,,,,,,,,,,,,
,8399,2.5356850624084473,11,,,,,,,,,,,,,,
,8449,2.310434341430664,11,,,,,,,,,,,,,,
,8499,2.2290313243865967,11,,,,,,,,,,,,,,
,8549,2.442307710647583,11,,,,,,,,,,,,,,
,8599,2.319125175476074,11,,,,,,,,,,,,,,
,8649,2.6023287773132324,11,,,,,,,,,,,,,,
,8699,2.0401134490966797,11,,,,,,,,,,,,,,
,8749,2.2814605236053467,11,,,,,,,,,,,,,,
,8799,1.9577136039733887,11,,,,,,,,,,,,,,
,8849,2.0670907497406006,11,,,,,,,,,,,,,,
,8899,2.1532421112060547,11,,,,,,,,,,,,,,
,8927,,11,1.940613865852356,62.93831253051758,44.12739181518555,2.5719950199127197,16.23892593383789,,,,,,,,,
,8927,,11,,,,,,75.95077514648438,63.765785217285156,0.97061687707901,11.214367866516113,,,,,
0.0009994970367373866,8928,,,,,,,,,,,,,,,,
,8949,2.2949094772338867,12,,,,,,,,,,,,,,
,8999,2.0804717540740967,12,,,,,,,,,,,,,,
,9049,2.4769058227539062,12,,,,,,,,,,,,,,
,9099,2.2777161598205566,12,,,,,,,,,,,,,,
,9149,2.2484025955200195,12,,,,,,,,,,,,,,
,9199,1.9042909145355225,12,,,,,,,,,,,,,,
,9249,2.651951551437378,12,,,,,,,,,,,,,,
,9299,2.4194531440734863,12,,,,,,,,,,,,,,
,9349,2.185987710952759,12,,,,,,,,,,,,,,
,9399,2.006551742553711,12,,,,,,,,,,,,,,
,9449,1.9890546798706055,12,,,,,,,,,,,,,,
,9499,2.155606269836426,12,,,,,,,,,,,,,,
,9549,2.3264660835266113,12,,,,,,,,,,,,,,
,9599,2.265662670135498,12,,,,,,,,,,,,,,
,9649,2.597296953201294,12,,,,,,,,,,,,,,
,9671,,12,1.8679380416870117,61.999637603759766,44.676456451416016,2.2752797603607178,15.047904014587402,,,,,,,,,
,9671,,12,,,,,,70.33206176757812,54.45709991455078,1.4147790670394897,14.460186004638672,,,,,
0.0009988685700857047,9672,,,,,,,,,,,,,,,,
,9699,1.9996838569641113,13,,,,,,,,,,,,,,
,9749,2.1861772537231445,13,,,,,,,,,,,,,,
,9799,2.475437879562378,13,,,,,,,,,,,,,,
,9849,2.2784910202026367,13,,,,,,,,,,,,,,
,9899,1.7071654796600342,13,,,,,,,,,,,,,,
,9949,1.9354265928268433,13,,,,,,,,,,,,,,
,9999,2.1272449493408203,13,,,,,,,,,,,,,,
,10049,1.9708856344223022,13,,,,,,,,,,,,,,
,10099,2.490509033203125,13,,,,,,,,,,,,,,
,10149,2.0150835514068604,13,,,,,,,,,,,,,,
,10199,1.8305079936981201,13,,,,,,,,,,,,,,
,10249,2.2331576347351074,13,,,,,,,,,,,,,,
,10299,1.9377106428146362,13,,,,,,,,,,,,,,
,10349,2.0218982696533203,13,,,,,,,,,,,,,,
,10399,1.9297540187835693,13,,,,,,,,,,,,,,
,10415,,13,1.7527796030044556,58.09103775024414,38.13901138305664,2.6343884468078613,17.317638397216797,,,,,,,,,
,10415,,13,,,,,,66.45060729980469,48.03322982788086,1.7165764570236206,16.70079803466797,,,,,
0.0009979891598506218,10416,,,,,,,,,,,,,,,,
,10449,1.9593613147735596,14,,,,,,,,,,,,,,
,10499,1.9761402606964111,14,,,,,,,,,,,,,,
,10549,1.94771146774292,14,,,,,,,,,,,,,,
,10599,2.132030487060547,14,,,,,,,,,,,,,,
,10649,1.9409897327423096,14,,,,,,,,,,,,,,
,10699,2.0257997512817383,14,,,,,,,,,,,,,,
,10749,2.0271711349487305,14,,,,,,,,,,,,,,
,10799,2.071702480316162,14,,,,,,,,,,,,,,
,10849,2.080610513687134,14,,,,,,,,,,,,,,
,10899,1.9824373722076416,14,,,,,,,,,,,,,,
,10949,2.0003561973571777,14,,,,,,,,,,,,,,
,10999,1.8297443389892578,14,,,,,,,,,,,,,,
,11049,1.9793014526367188,14,,,,,,,,,,,,,,
,11099,1.8949363231658936,14,,,,,,,,,,,,,,
,11149,1.9979331493377686,14,,,,,,,,,,,,,,
,11159,,14,1.6605727672576904,52.3314323425293,27.07596778869629,3.8087711334228516,21.44669532775879,,,,,,,,,
,11159,,14,,,,,,62.83328628540039,42.152652740478516,2.093249797821045,18.587387084960938,,,,,
0.0009968592488416746,11160,,,,,,,,,,,,,,,,
,11199,2.0470545291900635,15,,,,,,,,,,,,,,
,11249,2.0209505558013916,15,,,,,,,,,,,,,,
,11299,1.5830953121185303,15,,,,,,,,,,,,,,
,11349,1.8294668197631836,15,,,,,,,,,,,,,,
,11399,1.8714818954467773,15,,,,,,,,,,,,,,
,11449,2.0124704837799072,15,,,,,,,,,,,,,,
,11499,2.0914957523345947,15,,,,,,,,,,,,,,
,11549,2.1345417499542236,15,,,,,,,,,,,,,,
,11599,1.9835474491119385,15,,,,,,,,,,,,,,
,11649,2.1655123233795166,15,,,,,,,,,,,,,,
,11699,1.7741217613220215,15,,,,,,,,,,,,,,
,11749,1.6773333549499512,15,,,,,,,,,,,,,,
,11799,2.2347629070281982,15,,,,,,,,,,,,,,
,11849,1.9140408039093018,15,,,,,,,,,,,,,,
,11899,1.7939982414245605,15,,,,,,,,,,,,,,
,11903,,15,1.6524708271026611,50.28631591796875,23.346227645874023,4.962356090545654,21.977731704711914,,,,,,,,,
,11903,,15,,,,,,60.66727828979492,38.954769134521484,2.2961275577545166,19.4163818359375,,,,,
0.0009954794060030834,11904,,,,,,,,,,,,,,,,
,11949,1.8575955629348755,16,,,,,,,,,,,,,,
,11999,1.9058001041412354,16,,,,,,,,,,,,,,
,12049,1.8366522789001465,16,,,,,,,,,,,,,,
,12099,1.6954843997955322,16,,,,,,,,,,,,,,
,12149,1.8653311729431152,16,,,,,,,,,,,,,,
,12199,1.8953417539596558,16,,,,,,,,,,,,,,
,12249,1.9267011880874634,16,,,,,,,,,,,,,,
,12299,1.9784743785858154,16,,,,,,,,,,,,,,
,12349,1.790328860282898,16,,,,,,,,,,,,,,
,12399,1.8569796085357666,16,,,,,,,,,,,,,,
,12449,2.057352066040039,16,,,,,,,,,,,,,,
,12499,1.757704496383667,16,,,,,,,,,,,,,,
,12549,2.1798601150512695,16,,,,,,,,,,,,,,
,12599,1.9765326976776123,16,,,,,,,,,,,,,,
,12647,,16,1.5823129415512085,50.000694274902344,26.06103515625,3.93217134475708,20.00748634338379,,,,,,,,,
,12647,,16,,,,,,58.54936218261719,35.55427932739258,2.6226820945739746,20.37240219116211,,,,,
0.0009938503261272714,12648,,,,,,,,,,,,,,,,
,12649,2.0472497940063477,17,,,,,,,,,,,,,,
,12699,1.8507779836654663,17,,,,,,,,,,,,,,
,12749,1.7192869186401367,17,,,,,,,,,,,,,,
,12799,1.8429244756698608,17,,,,,,,,,,,,,,
,12849,1.8132331371307373,17,,,,,,,,,,,,,,
,12899,1.6621620655059814,17,,,,,,,,,,,,,,
,12949,1.7622301578521729,17,,,,,,,,,,,,,,
,12999,1.9532175064086914,17,,,,,,,,,,,,,,
,13049,1.8790512084960938,17,,,,,,,,,,,,,,
,13099,2.097111225128174,17,,,,,,,,,,,,,,
,13149,1.906202793121338,17,,,,,,,,,,,,,,
,13199,2.0287222862243652,17,,,,,,,,,,,,,,
,13249,1.8550686836242676,17,,,,,,,,,,,,,,
,13299,1.7497127056121826,17,,,,,,,,,,,,,,
,13349,1.7307846546173096,17,,,,,,,,,,,,,,
,13391,,17,1.5568190813064575,48.45333480834961,22.444990158081055,4.6420698165893555,21.36627769470215,,,,,,,,,
,13391,,17,,,,,,57.3249397277832,33.99810028076172,2.7452621459960938,20.58157730102539,,,,,
0.0009919728295050155,13392,,,,,,,,,,,,,,,,
,13399,1.7396941184997559,18,,,,,,,,,,,,,,
,13449,1.5299022197723389,18,,,,,,,,,,,,,,
,13499,1.7751860618591309,18,,,,,,,,,,,,,,
,13549,1.6080124378204346,18,,,,,,,,,,,,,,
,13599,1.5438342094421387,18,,,,,,,,,,,,,,
,13649,1.7971038818359375,18,,,,,,,,,,,,,,
,13699,1.78578519821167,18,,,,,,,,,,,,,,
,13749,1.6888079643249512,18,,,,,,,,,,,,,,
,13799,1.657341718673706,18,,,,,,,,,,,,,,
,13849,1.7241461277008057,18,,,,,,,,,,,,,,
,13899,1.644885778427124,18,,,,,,,,,,,,,,
,13949,2.038078784942627,18,,,,,,,,,,,,,,
,13999,1.798072099685669,18,,,,,,,,,,,,,,
,14049,1.8394041061401367,18,,,,,,,,,,,,,,
,14099,1.8352636098861694,18,,,,,,,,,,,,,,
,14135,,18,1.5355899333953857,47.39403533935547,20.39432716369629,4.920760154724121,22.078948974609375,,,,,,,,,
,14135,,18,,,,,,55.60166549682617,31.52310562133789,2.937798500061035,21.140762329101562,,,,,
0.0009898478615124062,14136,,,,,,,,,,,,,,,,
,14149,1.7047524452209473,19,,,,,,,,,,,,,,
,14199,1.781234860420227,19,,,,,,,,,,,,,,
,14249,1.894223928451538,19,,,,,,,,,,,,,,
,14299,2.059474229812622,19,,,,,,,,,,,,,,
,14349,1.527506947517395,19,,,,,,,,,,,,,,
,14399,1.9249268770217896,19,,,,,,,,,,,,,,
,14449,1.8031909465789795,19,,,,,,,,,,,,,,
,14499,1.9278185367584229,19,,,,,,,,,,,,,,
,14549,1.7464931011199951,19,,,,,,,,,,,,,,
,14599,1.7563307285308838,19,,,,,,,,,,,,,,
,14649,1.934370756149292,19,,,,,,,,,,,,,,
,14699,1.7037720680236816,19,,,,,,,,,,,,,,
,14749,1.6857056617736816,19,,,,,,,,,,,,,,
,14799,1.6324946880340576,19,,,,,,,,,,,,,,
,14849,1.7071075439453125,19,,,,,,,,,,,,,,
,14879,,19,1.481423258781433,47.747596740722656,23.038419723510742,4.113805770874023,20.59537124633789,,,,,,,,,
,14879,,19,,,,,,54.87832260131836,30.60538101196289,3.110105037689209,21.162837982177734,,,,,
0.000987476492134821,14880,,,,,,,,,,,,,,,,
,14899,1.4759728908538818,20,,,,,,,,,,,,,,
,14949,1.512784481048584,20,,,,,,,,,,,,,,
,14999,1.6376181840896606,20,,,,,,,,,,,,,,
,15049,1.871713638305664,20,,,,,,,,,,,,,,
,15099,1.8839709758758545,20,,,,,,,,,,,,,,
,15149,1.607478141784668,20,,,,,,,,,,,,,,
,15199,1.8623019456863403,20,,,,,,,,,,,,,,
,15249,1.9171154499053955,20,,,,,,,,,,,,,,
,15299,1.7609577178955078,20,,,,,,,,,,,,,,
,15349,1.7919988632202148,20,,,,,,,,,,,,,,
,15399,1.6479899883270264,20,,,,,,,,,,,,,,
,15449,1.5072356462478638,20,,,,,,,,,,,,,,
,15499,1.8150954246520996,20,,,,,,,,,,,,,,
,15549,1.57598078250885,20,,,,,,,,,,,,,,
,15599,1.4974088668823242,20,,,,,,,,,,,,,,
,15623,,20,1.4515464305877686,45.69000244140625,20.10593032836914,4.922146797180176,20.661924362182617,,,,,,,,,
,15623,,20,,,,,,53.698387145996094,29.05193519592285,3.270967721939087,21.375484466552734,,,,,
0.0009848599154281552,15624,,,,,,,,,,,,,,,,
,15649,1.6076208353042603,21,,,,,,,,,,,,,,
,15699,1.7134995460510254,21,,,,,,,,,,,,,,
,15749,1.5932512283325195,21,,,,,,,,,,,,,,
,15799,1.9771685600280762,21,,,,,,,,,,,,,,
,15849,1.7718523740768433,21,,,,,,,,,,,,,,
,15899,1.8394862413406372,21,,,,,,,,,,,,,,
,15949,1.408177137374878,21,,,,,,,,,,,,,,
,15999,1.5594797134399414,21,,,,,,,,,,,,,,
,16049,1.611655831336975,21,,,,,,,,,,,,,,
,16099,1.8795433044433594,21,,,,,,,,,,,,,,
,16149,1.6582180261611938,21,,,,,,,,,,,,,,
,16199,1.7402324676513672,21,,,,,,,,,,,,,,
,16249,1.665266513824463,21,,,,,,,,,,,,,,
,16299,2.1905179023742676,21,,,,,,,,,,,,,,
,16349,1.5913276672363281,21,,,,,,,,,,,,,,
,16367,,21,1.4688199758529663,46.96144104003906,22.221759796142578,4.253844261169434,20.485836029052734,,,,,,,,,
,16367,,21,,,,,,52.818546295166016,27.760833740234375,3.4404823780059814,21.617229461669922,,,,,
0.0009819994489175788,16368,,,,,,,,,,,,,,,,
,16399,1.5840253829956055,22,,,,,,,,,,,,,,
,16449,1.5775837898254395,22,,,,,,,,,,,,,,
,16499,1.4397544860839844,22,,,,,,,,,,,,,,
,16549,1.6345231533050537,22,,,,,,,,,,,,,,
,16599,1.7741409540176392,22,,,,,,,,,,,,,,
,16649,1.662926435470581,22,,,,,,,,,,,,,,
,16699,1.4029600620269775,22,,,,,,,,,,,,,,
,16749,1.6001451015472412,22,,,,,,,,,,,,,,
,16799,1.55950927734375,22,,,,,,,,,,,,,,
,16849,1.612046718597412,22,,,,,,,,,,,,,,
,16899,1.8430590629577637,22,,,,,,,,,,,,,,
,16949,1.6277010440826416,22,,,,,,,,,,,,,,
,16999,2.0562617778778076,22,,,,,,,,,,,,,,
,17049,1.501610279083252,22,,,,,,,,,,,,,,
,17099,1.6961642503738403,22,,,,,,,,,,,,,,
,17111,,22,1.4140868186950684,44.64179229736328,19.486156463623047,4.549172878265381,20.606464385986328,,,,,,,,,
,17111,,22,,,,,,51.89140319824219,26.606098175048828,3.56717586517334,21.718128204345703,,,,,
0.0009788965329341228,17112,,,,,,,,,,,,,,,,
,17149,1.6490716934204102,23,,,,,,,,,,,,,,
,17199,1.8230782747268677,23,,,,,,,,,,,,,,
,17249,1.5514014959335327,23,,,,,,,,,,,,,,
,17299,1.6869680881500244,23,,,,,,,,,,,,,,
,17349,1.6464639902114868,23,,,,,,,,,,,,,,
,17399,1.5972765684127808,23,,,,,,,,,,,,,,
,17449,1.6446502208709717,23,,,,,,,,,,,,,,
,17499,1.5196740627288818,23,,,,,,,,,,,,,,
,17549,1.6600756645202637,23,,,,,,,,,,,,,,
,17599,1.6503349542617798,23,,,,,,,,,,,,,,
,17649,1.7738759517669678,23,,,,,,,,,,,,,,
,17699,1.6232612133026123,23,,,,,,,,,,,,,,
,17749,1.717742919921875,23,,,,,,,,,,,,,,
,17799,1.6826512813568115,23,,,,,,,,,,,,,,
,17849,1.6110033988952637,23,,,,,,,,,,,,,,
,17855,,23,1.41360604763031,43.28993606567383,15.687089920043945,6.016111373901367,21.586732864379883,,,,,,,,,
,17855,,23,,,,,,51.064693450927734,25.78706169128418,3.616511583328247,21.66111946105957,,,,,
0.0009755527298894293,17856,,,,,,,,,,,,,,,,
,17899,1.3236488103866577,24,,,,,,,,,,,,,,
,17949,1.369044542312622,24,,,,,,,,,,,,,,
,17999,1.5222625732421875,24,,,,,,,,,,,,,,
,18049,1.5891824960708618,24,,,,,,,,,,,,,,
,18099,1.809983253479004,24,,,,,,,,,,,,,,
,18149,1.8852159976959229,24,,,,,,,,,,,,,,
,18199,1.5077974796295166,24,,,,,,,,,,,,,,
,18249,1.6628503799438477,24,,,,,,,,,,,,,,
,18299,1.5372188091278076,24,,,,,,,,,,,,,,
,18349,1.5907373428344727,24,,,,,,,,,,,,,,
,18399,1.4844398498535156,24,,,,,,,,,,,,,,
,18449,1.5218069553375244,24,,,,,,,,,,,,,,
,18499,1.6219624280929565,24,,,,,,,,,,,,,,
,18549,1.9702847003936768,24,,,,,,,,,,,,,,
,18599,1.653217077255249,24,,,,,,,,,,,,,,
,18599,,24,1.4166916608810425,45.38357925415039,21.20128059387207,4.219181060791016,19.963119506835938,,,,,,,,,
,18599,,24,,,,,,50.48822784423828,24.88067626953125,3.7073845863342285,21.90016746520996,,,,,
0.0009719697234890296,18600,,,,,,,,,,,,,,,,
,18649,1.7123045921325684,25,,,,,,,,,,,,,,
,18699,1.750195860862732,25,,,,,,,,,,,,,,
,18749,1.6633880138397217,25,,,,,,,,,,,,,,
,18799,1.776999831199646,25,,,,,,,,,,,,,,
,18849,1.6541061401367188,25,,,,,,,,,,,,,,
,18899,1.4848473072052002,25,,,,,,,,,,,,,,
,18949,1.4345097541809082,25,,,,,,,,,,,,,,
,18999,1.7430086135864258,25,,,,,,,,,,,,,,
,19049,1.5886098146438599,25,,,,,,,,,,,,,,
,19099,1.735193133354187,25,,,,,,,,,,,,,,
,19149,1.5503249168395996,25,,,,,,,,,,,,,,
,19199,1.792224645614624,25,,,,,,,,,,,,,,
,19249,1.6703410148620605,25,,,,,,,,,,,,,,
,19299,1.7440028190612793,25,,,,,,,,,,,,,,
,19343,,25,1.3639905452728271,44.16482925415039,20.06572151184082,4.271868705749512,19.827239990234375,,,,,,,,,
,19343,,25,,,,,,50.0251579284668,24.09425163269043,3.7749178409576416,22.155990600585938,,,,,
0.0009681493178845487,19344,,,,,,,,,,,,,,,,
,19349,1.5161807537078857,26,,,,,,,,,,,,,,
,19399,1.4127124547958374,26,,,,,,,,,,,,,,
,19449,1.568228006362915,26,,,,,,,,,,,,,,
,19499,1.5092551708221436,26,,,,,,,,,,,,,,
,19549,1.4017120599746704,26,,,,,,,,,,,,,,
,19599,1.6423060894012451,26,,,,,,,,,,,,,,
,19649,1.60014808177948,26,,,,,,,,,,,,,,
,19699,1.5686542987823486,26,,,,,,,,,,,,,,
,19749,1.6937191486358643,26,,,,,,,,,,,,,,
,19799,1.6587507724761963,26,,,,,,,,,,,,,,
,19849,1.6109461784362793,26,,,,,,,,,,,,,,
,19899,1.6544651985168457,26,,,,,,,,,,,,,,
,19949,1.5448052883148193,26,,,,,,,,,,,,,,
,19999,1.3239942789077759,26,,,,,,,,,,,,,,
,20049,1.54268217086792,26,,,,,,,,,,,,,,
,20087,,26,1.3770304918289185,42.229248046875,14.356030464172363,6.165855407714844,21.707361221313477,,,,,,,,,
,20087,,26,,,,,,49.60264205932617,23.79294776916504,3.8277249336242676,21.98196792602539,,,,,
0.0009640934367652599,20088,,,,,,,,,,,,,,,,
,20099,1.8197441101074219,27,,,,,,,,,,,,,,
,20149,1.451350212097168,27,,,,,,,,,,,,,,
,20199,1.5770084857940674,27,,,,,,,,,,,,,,
,20249,1.8751763105392456,27,,,,,,,,,,,,,,
,20299,1.4974251985549927,27,,,,,,,,,,,,,,
,20349,1.526139736175537,27,,,,,,,,,,,,,,
,20399,1.5471456050872803,27,,,,,,,,,,,,,,
,20449,1.9183759689331055,27,,,,,,,,,,,,,,
,20499,1.666670322418213,27,,,,,,,,,,,,,,
,20549,1.4742488861083984,27,,,,,,,,,,,,,,
,20599,1.5311957597732544,27,,,,,,,,,,,,,,
,20649,1.6513476371765137,27,,,,,,,,,,,,,,
,20699,1.7239446640014648,27,,,,,,,,,,,,,,
,20749,1.294884204864502,27,,,,,,,,,,,,,,
,20799,1.6808464527130127,27,,,,,,,,,,,,,,
,20831,,27,1.3767451047897339,42.446929931640625,15.609444618225098,5.612634181976318,21.224851608276367,,,,,,,,,
,20831,,27,,,,,,49.160037994384766,23.2627010345459,3.9797983169555664,21.917539596557617,,,,,
0.0009598041223894496,20832,,,,,,,,,,,,,,,,
,20849,1.6074678897857666,28,,,,,,,,,,,,,,
,20899,1.5779829025268555,28,,,,,,,,,,,,,,
,20949,1.4891357421875,28,,,,,,,,,,,,,,
,20999,1.3910647630691528,28,,,,,,,,,,,,,,
,21049,1.5044074058532715,28,,,,,,,,,,,,,,
,21099,1.5798711776733398,28,,,,,,,,,,,,,,
,21149,1.616602897644043,28,,,,,,,,,,,,,,
,21199,1.4568796157836914,28,,,,,,,,,,,,,,
,21249,1.7811150550842285,28,,,,,,,,,,,,,,
,21299,1.5449849367141724,28,,,,,,,,,,,,,,
,21349,1.4995648860931396,28,,,,,,,,,,,,,,
,21399,1.5259149074554443,28,,,,,,,,,,,,,,
,21449,1.6831268072128296,28,,,,,,,,,,,,,,
,21499,1.4693641662597656,28,,,,,,,,,,,,,,
,21549,1.4441604614257812,28,,,,,,,,,,,,,,
,21575,,28,1.339234471321106,42.708984375,19.269859313964844,4.450729846954346,18.98839569091797,,,,,,,,,
,21575,,28,,,,,,48.49647903442383,22.306440353393555,4.093714237213135,22.096324920654297,,,,,
0.0009552835345560785,21576,,,,,,,,,,,,,,,,
,21599,1.5808041095733643,29,,,,,,,,,,,,,,
,21649,1.6177918910980225,29,,,,,,,,,,,,,,
,21699,1.6297607421875,29,,,,,,,,,,,,,,
,21749,1.5961058139801025,29,,,,,,,,,,,,,,
,21799,1.4996442794799805,29,,,,,,,,,,,,,,
,21849,1.665573239326477,29,,,,,,,,,,,,,,
,21899,1.5021939277648926,29,,,,,,,,,,,,,,
,21949,1.5578315258026123,29,,,,,,,,,,,,,,
,21999,1.4758713245391846,29,,,,,,,,,,,,,,
,22049,1.5928409099578857,29,,,,,,,,,,,,,,
,22099,1.4227548837661743,29,,,,,,,,,,,,,,
,22149,1.4853909015655518,29,,,,,,,,,,,,,,
,22199,1.6045526266098022,29,,,,,,,,,,,,,,
,22249,1.5720489025115967,29,,,,,,,,,,,,,,
,22299,1.4384698867797852,29,,,,,,,,,,,,,,
,22319,,29,1.3126251697540283,40.97721862792969,13.446473121643066,6.1103949546813965,21.420351028442383,,,,,,,,,
,22319,,29,,,,,,48.2299690246582,22.34286117553711,4.0876078605651855,21.799501419067383,,,,,
0.0009505339495172582,22320,,,,,,,,,,,,,,,,
,22349,1.5733314752578735,30,,,,,,,,,,,,,,
,22399,1.4445399045944214,30,,,,,,,,,,,,,,
,22449,1.3350887298583984,30,,,,,,,,,,,,,,
,22499,1.3023171424865723,30,,,,,,,,,,,,,,
,22549,1.5498790740966797,30,,,,,,,,,,,,,,
,22599,1.2780966758728027,30,,,,,,,,,,,,,,
,22649,1.5860378742218018,30,,,,,,,,,,,,,,
,22699,1.5526807308197021,30,,,,,,,,,,,,,,
,22749,1.5149873495101929,30,,,,,,,,,,,,,,
,22799,1.4224108457565308,30,,,,,,,,,,,,,,
,22849,1.6848751306533813,30,,,,,,,,,,,,,,
,22899,1.6523406505584717,30,,,,,,,,,,,,,,
,22949,1.6669998168945312,30,,,,,,,,,,,,,,
,22999,1.6085195541381836,30,,,,,,,,,,,,,,
,23049,1.6640455722808838,30,,,,,,,,,,,,,,
,23063,,30,1.3141891956329346,41.34048843383789,14.692955017089844,5.686119556427002,20.96141242980957,,,,,,,,,
,23063,,30,,,,,,47.88545227050781,21.90410804748535,4.128823280334473,21.852521896362305,,,,,
0.0009455577588320895,23064,,,,,,,,,,,,,,,,
,23099,1.6426478624343872,31,,,,,,,,,,,,,,
,23149,1.8365800380706787,31,,,,,,,,,,,,,,
,23199,1.625450611114502,31,,,,,,,,,,,,,,
,23249,1.4388363361358643,31,,,,,,,,,,,,,,
,23299,1.633559226989746,31,,,,,,,,,,,,,,
,23349,1.505624532699585,31,,,,,,,,,,,,,,
,23399,1.7700660228729248,31,,,,,,,,,,,,,,
,23449,1.4885890483856201,31,,,,,,,,,,,,,,
,23499,1.5198479890823364,31,,,,,,,,,,,,,,
,23549,1.4771695137023926,31,,,,,,,,,,,,,,
,23599,1.4559061527252197,31,,,,,,,,,,,,,,
,23649,1.5282280445098877,31,,,,,,,,,,,,,,
,23699,1.607495903968811,31,,,,,,,,,,,,,,
,23749,1.5932408571243286,31,,,,,,,,,,,,,,
,23799,1.60748291015625,31,,,,,,,,,,,,,,
,23807,,31,1.3333477973937988,41.884002685546875,16.6326961517334,5.091302394866943,20.160003662109375,,,,,,,,,
,23807,,31,,,,,,47.26496124267578,20.853872299194336,4.295411586761475,22.115678787231445,,,,,
0.0009403574681624404,23808,,,,,,,,,,,,,,,,
,23849,1.5710887908935547,32,,,,,,,,,,,,,,
,23899,1.4444010257720947,32,,,,,,,,,,,,,,
,23949,1.6887378692626953,32,,,,,,,,,,,,,,
,23999,1.392333745956421,32,,,,,,,,,,,,,,
,24049,1.6179320812225342,32,,,,,,,,,,,,,,
,24099,1.4625309705734253,32,,,,,,,,,,,,,,
,24149,1.3582510948181152,32,,,,,,,,,,,,,,
,24199,1.4988517761230469,32,,,,,,,,,,,,,,
,24249,1.3560376167297363,32,,,,,,,,,,,,,,
,24299,1.4139875173568726,32,,,,,,,,,,,,,,
,24349,1.44221830368042,32,,,,,,,,,,,,,,
,24399,1.3928489685058594,32,,,,,,,,,,,,,,
,24449,1.672928810119629,32,,,,,,,,,,,,,,
,24499,1.5565495491027832,32,,,,,,,,,,,,,,
,24549,1.4130773544311523,32,,,,,,,,,,,,,,
,24551,,32,1.3205381631851196,40.80390548706055,13.537983894348145,6.170015335083008,21.095905303955078,,,,,,,,,
,24551,,32,,,,,,47.08396530151367,20.88225555419922,4.311583995819092,21.890125274658203,,,,,
0.0009349356960112697,24552,,,,,,,,,,,,,,,,
,24599,1.6297403573989868,33,,,,,,,,,,,,,,
,24649,1.4563541412353516,33,,,,,,,,,,,,,,
,24699,1.510897159576416,33,,,,,,,,,,,,,,
,24749,1.5521527528762817,33,,,,,,,,,,,,,,
,24799,1.4484728574752808,33,,,,,,,,,,,,,,
,24849,1.378791093826294,33,,,,,,,,,,,,,,
,24899,1.4956037998199463,33,,,,,,,,,,,,,,
,24949,1.5035457611083984,33,,,,,,,,,,,,,,
,24999,1.5372421741485596,33,,,,,,,,,,,,,,
,25049,1.5748307704925537,33,,,,,,,,,,,,,,
,25099,1.52149498462677,33,,,,,,,,,,,,,,
,25149,1.638724446296692,33,,,,,,,,,,,,,,
,25199,1.3005146980285645,33,,,,,,,,,,,,,,
,25249,1.6317799091339111,33,,,,,,,,,,,,,,
,25295,,33,1.3076025247573853,40.76508331298828,14.40871810913086,5.977288722991943,20.379074096679688,,,,,,,,,
,25295,,33,,,,,,46.83951950073242,20.737579345703125,4.33013916015625,21.771800994873047,,,,,
0.0009292951724041319,25296,,,,,,,,,,,,,,,,
,25299,1.4064915180206299,34,,,,,,,,,,,,,,
,25349,1.4741398096084595,34,,,,,,,,,,,,,,
,25399,1.5843111276626587,34,,,,,,,,,,,,,,
,25449,1.3902723789215088,34,,,,,,,,,,,,,,
,25499,1.4781534671783447,34,,,,,,,,,,,,,,
,25549,1.4852995872497559,34,,,,,,,,,,,,,,
,25599,1.3594639301300049,34,,,,,,,,,,,,,,
,25649,1.4669814109802246,34,,,,,,,,,,,,,,
,25699,1.6730477809906006,34,,,,,,,,,,,,,,
,25749,1.4056215286254883,34,,,,,,,,,,,,,,
,25799,1.3985655307769775,34,,,,,,,,,,,,,,
,25849,1.5027825832366943,34,,,,,,,,,,,,,,
,25899,1.5118048191070557,34,,,,,,,,,,,,,,
,25949,1.4255300760269165,34,,,,,,,,,,,,,,
,25999,1.3697701692581177,34,,,,,,,,,,,,,,
,26039,,34,1.2929493188858032,39.90682601928711,12.401037216186523,6.495847225189209,21.00994110107422,,,,,,,,,
,26039,,34,,,,,,46.44806671142578,20.119998931884766,4.406807899475098,21.921260833740234,,,,,
0.0009234387375145277,26040,,,,,,,,,,,,,,,,
,26049,1.5254895687103271,35,,,,,,,,,,,,,,
,26099,1.3592466115951538,35,,,,,,,,,,,,,,
,26149,1.4131845235824585,35,,,,,,,,,,,,,,
,26199,1.477217674255371,35,,,,,,,,,,,,,,
,26249,1.6977639198303223,35,,,,,,,,,,,,,,
,26299,1.6857783794403076,35,,,,,,,,,,,,,,
,26349,1.5172539949417114,35,,,,,,,,,,,,,,
,26399,1.4617687463760376,35,,,,,,,,,,,,,,
,26449,1.4648855924606323,35,,,,,,,,,,,,,,
,26499,1.2588704824447632,35,,,,,,,,,,,,,,
,26549,1.6174647808074951,35,,,,,,,,,,,,,,
,26599,1.4353152513504028,35,,,,,,,,,,,,,,
,26649,1.2909870147705078,35,,,,,,,,,,,,,,
,26699,1.5472267866134644,35,,,,,,,,,,,,,,
,26749,1.4839367866516113,35,,,,,,,,,,,,,,
,26783,,35,1.2691279649734497,39.08600616455078,11.645383834838867,6.5360565185546875,20.904565811157227,,,,,,,,,
,26783,,35,,,,,,46.427547454833984,20.218395233154297,4.394014835357666,21.815135955810547,,,,,
0.0009173693402337905,26784,,,,,,,,,,,,,,,,
,26799,1.3829365968704224,36,,,,,,,,,,,,,,
,26849,1.4436750411987305,36,,,,,,,,,,,,,,
,26899,1.3614614009857178,36,,,,,,,,,,,,,,
,26949,1.4190878868103027,36,,,,,,,,,,,,,,
,26999,1.5459630489349365,36,,,,,,,,,,,,,,
,27049,1.5049030780792236,36,,,,,,,,,,,,,,
,27099,1.3775986433029175,36,,,,,,,,,,,,,,
,27149,1.4469454288482666,36,,,,,,,,,,,,,,
,27199,1.3877415657043457,36,,,,,,,,,,,,,,
,27249,1.4883363246917725,36,,,,,,,,,,,,,,
,27299,1.3959243297576904,36,,,,,,,,,,,,,,
,27349,1.527709722518921,36,,,,,,,,,,,,,,
,27399,1.2902307510375977,36,,,,,,,,,,,,,,
,27449,1.4433577060699463,36,,,,,,,,,,,,,,
,27499,1.468003273010254,36,,,,,,,,,,,,,,
,27527,,36,1.2751777172088623,40.051025390625,14.626401901245117,5.453184127807617,19.971437454223633,,,,,,,,,
,27527,,36,,,,,,45.79429244995117,19.6723690032959,4.52795934677124,21.593965530395508,,,,,
0.0009110900366862309,27528,,,,,,,,,,,,,,,,
,27549,1.5327988862991333,37,,,,,,,,,,,,,,
,27599,1.462343692779541,37,,,,,,,,,,,,,,
,27649,1.2667714357376099,37,,,,,,,,,,,,,,
,27699,1.484154224395752,37,,,,,,,,,,,,,,
,27749,1.337275505065918,37,,,,,,,,,,,,,,
,27799,1.3246269226074219,37,,,,,,,,,,,,,,
,27849,1.3621348142623901,37,,,,,,,,,,,,,,
,27899,1.671112298965454,37,,,,,,,,,,,,,,
,27949,1.6462299823760986,37,,,,,,,,,,,,,,
,27999,1.4250075817108154,37,,,,,,,,,,,,,,
,28049,1.4765050411224365,37,,,,,,,,,,,,,,
,28099,1.4180107116699219,37,,,,,,,,,,,,,,
,28149,1.5915067195892334,37,,,,,,,,,,,,,,
,28199,1.4161897897720337,37,,,,,,,,,,,,,,
,28249,1.423553228378296,37,,,,,,,,,,,,,,
,28271,,37,1.2823561429977417,39.3813362121582,12.00449275970459,6.411269664764404,20.965572357177734,,,,,,,,,
,28271,,37,,,,,,45.85626220703125,19.553604125976562,4.48809814453125,21.814558029174805,,,,,
0.000904603988690286,28272,,,,,,,,,,,,,,,,
,28299,1.2987717390060425,38,,,,,,,,,,,,,,
,28349,1.3844691514968872,38,,,,,,,,,,,,,,
,28399,1.3982675075531006,38,,,,,,,,,,,,,,
,28449,1.7838813066482544,38,,,,,,,,,,,,,,
,28499,1.3706998825073242,38,,,,,,,,,,,,,,
,28549,1.5253102779388428,38,,,,,,,,,,,,,,
,28599,1.3829983472824097,38,,,,,,,,,,,,,,
,28649,1.3101495504379272,38,,,,,,,,,,,,,,
,28699,1.4423707723617554,38,,,,,,,,,,,,,,
,28749,1.2940499782562256,38,,,,,,,,,,,,,,
,28799,1.4079487323760986,38,,,,,,,,,,,,,,
,28849,1.5150753259658813,38,,,,,,,,,,,,,,
,28899,1.4485286474227905,38,,,,,,,,,,,,,,
,28949,1.4369533061981201,38,,,,,,,,,,,,,,
,28999,1.374367356300354,38,,,,,,,,,,,,,,
,29015,,38,1.290647268295288,40.72903060913086,15.5512113571167,5.539148330688477,19.638671875,,,,,,,,,
,29015,,38,,,,,,45.18156433105469,18.961252212524414,4.521088123321533,21.69922637939453,,,,,
0.0008979144621664494,29016,,,,,,,,,,,,,,,,
,29049,1.4765138626098633,39,,,,,,,,,,,,,,
,29099,1.486415982246399,39,,,,,,,,,,,,,,
,29149,1.4363185167312622,39,,,,,,,,,,,,,,
,29199,1.5165579319000244,39,,,,,,,,,,,,,,
,29249,1.3147847652435303,39,,,,,,,,,,,,,,
,29299,1.1816599369049072,39,,,,,,,,,,,,,,
,29349,1.7606565952301025,39,,,,,,,,,,,,,,
,29399,1.6992591619491577,39,,,,,,,,,,,,,,
,29449,1.2796685695648193,39,,,,,,,,,,,,,,
,29499,1.3185131549835205,39,,,,,,,,,,,,,,
,29549,1.5467244386672974,39,,,,,,,,,,,,,,
,29599,1.3641502857208252,39,,,,,,,,,,,,,,
,29649,1.525875449180603,39,,,,,,,,,,,,,,
,29699,1.5274536609649658,39,,,,,,,,,,,,,,
,29749,1.4808530807495117,39,,,,,,,,,,,,,,
,29759,,39,1.252016544342041,38.64231872558594,11.302912712097168,6.773151397705078,20.566255569458008,,,,,,,,,
,29759,,39,,,,,,45.04442596435547,18.775161743164062,4.662575721740723,21.606687545776367,,,,,
0.0008910248254927808,29760,,,,,,,,,,,,,,,,
,29799,1.5445325374603271,40,,,,,,,,,,,,,,
,29849,1.529597520828247,40,,,,,,,,,,,,,,
,29899,1.620764970779419,40,,,,,,,,,,,,,,
,29949,1.3082364797592163,40,,,,,,,,,,,,,,
,29999,1.4070568084716797,40,,,,,,,,,,,,,,
,30049,1.4438008069992065,40,,,,,,,,,,,,,,
,30099,1.4949575662612915,40,,,,,,,,,,,,,,
,30149,1.5256378650665283,40,,,,,,,,,,,,,,
,30199,1.3761119842529297,40,,,,,,,,,,,,,,
,30249,1.3637993335723877,40,,,,,,,,,,,,,,
,30299,1.4578800201416016,40,,,,,,,,,,,,,,
,30349,1.5287137031555176,40,,,,,,,,,,,,,,
,30399,1.32309889793396,40,,,,,,,,,,,,,,
,30449,1.5208754539489746,40,,,,,,,,,,,,,,
,30499,1.3300046920776367,40,,,,,,,,,,,,,,
,30503,,40,1.2368557453155518,38.52446365356445,12.4135160446167,5.981448173522949,20.129501342773438,,,,,,,,,
,30503,,40,,,,,,45.0389518737793,18.452760696411133,4.658535003662109,21.927654266357422,,,,,
0.0008839385478088264,30504,,,,,,,,,,,,,,,,
,30549,1.6061166524887085,41,,,,,,,,,,,,,,
,30599,1.3093085289001465,41,,,,,,,,,,,,,,
,30649,1.4822689294815063,41,,,,,,,,,,,,,,
,30699,1.4688975811004639,41,,,,,,,,,,,,,,
,30749,1.3186297416687012,41,,,,,,,,,,,,,,
,30799,1.4343924522399902,41,,,,,,,,,,,,,,
,30849,1.2640130519866943,41,,,,,,,,,,,,,,
,30899,1.3496568202972412,41,,,,,,,,,,,,,,
,30949,1.2458908557891846,41,,,,,,,,,,,,,,
,30999,1.1200364828109741,41,,,,,,,,,,,,,,
,31049,1.5618923902511597,41,,,,,,,,,,,,,,
,31099,1.5081933736801147,41,,,,,,,,,,,,,,
,31149,1.4490971565246582,41,,,,,,,,,,,,,,
,31199,1.4254653453826904,41,,,,,,,,,,,,,,
,31247,,41,1.303802490234375,40.57096862792969,14.541824340820312,5.604314804077148,20.424829483032227,,,,,,,,,
,31247,,41,,,,,,44.77556228637695,18.623401641845703,4.634421348571777,21.517738342285156,,,,,
0.0008766591972688036,31248,,,,,,,,,,,,,,,,
,31249,1.3887946605682373,42,,,,,,,,,,,,,,
,31299,1.2538859844207764,42,,,,,,,,,,,,,,
,31349,1.4995975494384766,42,,,,,,,,,,,,,,
,31399,1.3920845985412598,42,,,,,,,,,,,,,,
,31449,1.3657716512680054,42,,,,,,,,,,,,,,
,31499,1.2808760404586792,42,,,,,,,,,,,,,,
,31549,1.47226083278656,42,,,,,,,,,,,,,,
,31599,1.4431333541870117,42,,,,,,,,,,,,,,
,31649,1.4673869609832764,42,,,,,,,,,,,,,,
,31699,1.4441938400268555,42,,,,,,,,,,,,,,
,31749,1.571587324142456,42,,,,,,,,,,,,,,
,31799,1.2897026538848877,42,,,,,,,,,,,,,,
,31849,1.201039433479309,42,,,,,,,,,,,,,,
,31899,1.418823480606079,42,,,,,,,,,,,,,,
,31949,1.6596379280090332,42,,,,,,,,,,,,,,
,31991,,42,1.243849754333496,38.029476165771484,10.444657325744629,6.613701820373535,20.971118927001953,,,,,,,,,
,31991,,42,,,,,,44.289363861083984,18.223400115966797,4.691622257232666,21.374340057373047,,,,,
0.0008691904392449266,31992,,,,,,,,,,,,,,,,
,31999,1.415525197982788,43,,,,,,,,,,,,,,
,32049,1.5065181255340576,43,,,,,,,,,,,,,,
,32099,1.480006217956543,43,,,,,,,,,,,,,,
,32149,1.3504576683044434,43,,,,,,,,,,,,,,
,32199,1.3873869180679321,43,,,,,,,,,,,,,,
,32249,1.460378646850586,43,,,,,,,,,,,,,,
,32299,1.3167462348937988,43,,,,,,,,,,,,,,
,32349,1.5012716054916382,43,,,,,,,,,,,,,,
,32399,1.7071356773376465,43,,,,,,,,,,,,,,
,32449,1.425215482711792,43,,,,,,,,,,,,,,
,32499,1.306030511856079,43,,,,,,,,,,,,,,
,32549,1.4103580713272095,43,,,,,,,,,,,,,,
,32599,1.3631007671356201,43,,,,,,,,,,,,,,
,32649,1.359676480293274,43,,,,,,,,,,,,,,
,32699,1.4514009952545166,43,,,,,,,,,,,,,,
,32735,,43,1.2627573013305664,38.85584259033203,10.2699556350708,7.312507629394531,21.273380279541016,,,,,,,,,
,32735,,43,,,,,,44.019020080566406,17.672657012939453,4.841002464294434,21.505359649658203,,,,,
0.000861536034481782,32736,,,,,,,,,,,,,,,,
,32749,1.3256596326828003,44,,,,,,,,,,,,,,
,32799,1.428635597229004,44,,,,,,,,,,,,,,
,32849,1.3297181129455566,44,,,,,,,,,,,,,,
,32899,1.3494563102722168,44,,,,,,,,,,,,,,
,32949,1.3231816291809082,44,,,,,,,,,,,,,,
,32999,1.376274824142456,44,,,,,,,,,,,,,,
,33049,1.3341847658157349,44,,,,,,,,,,,,,,
,33099,1.3955497741699219,44,,,,,,,,,,,,,,
,33149,1.5700119733810425,44,,,,,,,,,,,,,,
,33199,1.4198877811431885,44,,,,,,,,,,,,,,
,33249,1.3638888597488403,44,,,,,,,,,,,,,,
,33299,1.5311031341552734,44,,,,,,,,,,,,,,
,33349,1.276734471321106,44,,,,,,,,,,,,,,
,33399,1.5224828720092773,44,,,,,,,,,,,,,,
,33449,1.2484389543533325,44,,,,,,,,,,,,,,
,33479,,44,1.2227565050125122,38.100189208984375,11.43879222869873,6.439000129699707,20.22239875793457,,,,,,,,,
,33479,,44,,,,,,44.15946578979492,17.943050384521484,4.771109580993652,21.44530487060547,,,,,
0.0008536998372026804,33480,,,,,,,,,,,,,,,,
,33499,1.4012572765350342,45,,,,,,,,,,,,,,
,33549,1.4493045806884766,45,,,,,,,,,,,,,,
,33599,1.3328309059143066,45,,,,,,,,,,,,,,
,33649,1.209585189819336,45,,,,,,,,,,,,,,
,33699,1.2909871339797974,45,,,,,,,,,,,,,,
,33749,1.3775672912597656,45,,,,,,,,,,,,,,
,33799,1.2506117820739746,45,,,,,,,,,,,,,,
,33849,1.294571042060852,45,,,,,,,,,,,,,,
,33899,1.3826361894607544,45,,,,,,,,,,,,,,
,33949,1.252081036567688,45,,,,,,,,,,,,,,
,33999,1.357344388961792,45,,,,,,,,,,,,,,
,34049,1.4524474143981934,45,,,,,,,,,,,,,,
,34099,1.4541015625,45,,,,,,,,,,,,,,
,34149,1.372002124786377,45,,,,,,,,,,,,,,
,34199,1.25594162940979,45,,,,,,,,,,,,,,
,34223,,45,1.218935251235962,38.46623229980469,13.425675392150879,5.629271984100342,19.411283493041992,,,,,,,,,
,34223,,45,,,,,,43.54076385498047,17.562763214111328,4.7437944412231445,21.23420524597168,,,,,
0.0008456857931689388,34224,,,,,,,,,,,,,,,,
,34249,1.5079799890518188,46,,,,,,,,,,,,,,
,34299,1.3104472160339355,46,,,,,,,,,,,,,,
,34349,1.2638219594955444,46,,,,,,,,,,,,,,
,34399,1.432192325592041,46,,,,,,,,,,,,,,
,34449,1.3749396800994873,46,,,,,,,,,,,,,,
,34499,1.416135549545288,46,,,,,,,,,,,,,,
,34549,1.6136831045150757,46,,,,,,,,,,,,,,
,34599,1.5815424919128418,46,,,,,,,,,,,,,,
,34649,1.4653072357177734,46,,,,,,,,,,,,,,
,34699,2.0198912620544434,46,,,,,,,,,,,,,,
,34749,1.4453773498535156,46,,,,,,,,,,,,,,
,34799,1.362405776977539,46,,,,,,,,,,,,,,
,34849,1.3375418186187744,46,,,,,,,,,,,,,,
,34899,1.5100116729736328,46,,,,,,,,,,,,,,
,34949,1.333294153213501,46,,,,,,,,,,,,,,
,34967,,46,1.2293246984481812,38.55635452270508,12.115413665771484,6.2129974365234375,20.227943420410156,,,,,,,,,
,34967,,46,,,,,,43.38130569458008,17.408906936645508,4.836093425750732,21.136306762695312,,,,,
0.0008374979376930711,34968,,,,,,,,,,,,,,,,
,34999,1.4886740446090698,47,,,,,,,,,,,,,,
,35049,1.2821307182312012,47,,,,,,,,,,,,,,
,35099,1.4183032512664795,47,,,,,,,,,,,,,,
,35149,1.37267005443573,47,,,,,,,,,,,,,,
,35199,1.2259314060211182,47,,,,,,,,,,,,,,
,35249,1.2587904930114746,47,,,,,,,,,,,,,,
,35299,1.4836406707763672,47,,,,,,,,,,,,,,
,35349,1.4320791959762573,47,,,,,,,,,,,,,,
,35399,1.3689985275268555,47,,,,,,,,,,,,,,
,35449,1.359462857246399,47,,,,,,,,,,,,,,
,35499,1.3294408321380615,47,,,,,,,,,,,,,,
,35549,1.354101538658142,47,,,,,,,,,,,,,,
,35599,1.4309700727462769,47,,,,,,,,,,,,,,
,35649,1.5799615383148193,47,,,,,,,,,,,,,,
,35699,1.4460647106170654,47,,,,,,,,,,,,,,
,35711,,47,1.2266514301300049,37.70503234863281,9.605812072753906,7.367968559265137,20.731250762939453,,,,,,,,,
,35711,,47,,,,,,43.31509017944336,17.20222282409668,4.884002208709717,21.228862762451172,,,,,
0.0008291403936068863,35712,,,,,,,,,,,,,,,,
,35749,1.3420504331588745,48,,,,,,,,,,,,,,
,35799,1.4685090780258179,48,,,,,,,,,,,,,,
,35849,1.3148081302642822,48,,,,,,,,,,,,,,
,35899,1.2484742403030396,48,,,,,,,,,,,,,,
,35949,1.1761422157287598,48,,,,,,,,,,,,,,
,35999,1.3441905975341797,48,,,,,,,,,,,,,,
,36049,1.3379619121551514,48,,,,,,,,,,,,,,
,36099,1.3188495635986328,48,,,,,,,,,,,,,,
,36149,1.270366907119751,48,,,,,,,,,,,,,,
,36199,1.385140061378479,48,,,,,,,,,,,,,,
,36249,1.253269076347351,48,,,,,,,,,,,,,,
,36299,1.3521491289138794,48,,,,,,,,,,,,,,
,36349,1.1124212741851807,48,,,,,,,,,,,,,,
,36399,1.459115982055664,48,,,,,,,,,,,,,,
,36449,1.4954719543457031,48,,,,,,,,,,,,,,
,36455,,48,1.2024654150009155,37.2960090637207,11.60517406463623,6.0868239402771,19.6040096282959,,,,,,,,,
,36455,,48,,,,,,43.08293533325195,16.964702606201172,4.895963668823242,21.222270965576172,,,,,
0.0008206173691855193,36456,,,,,,,,,,,,,,,,
,36499,1.3075802326202393,49,,,,,,,,,,,,,,
,36549,1.5131523609161377,49,,,,,,,,,,,,,,
,36599,1.1706422567367554,49,,,,,,,,,,,,,,
,36649,1.3823316097259521,49,,,,,,,,,,,,,,
,36699,1.361635446548462,49,,,,,,,,,,,,,,
,36749,1.24941086769104,49,,,,,,,,,,,,,,
,36799,1.4628736972808838,49,,,,,,,,,,,,,,
,36849,1.4044865369796753,49,,,,,,,,,,,,,,
,36899,1.2727986574172974,49,,,,,,,,,,,,,,
,36949,1.5216748714447021,49,,,,,,,,,,,,,,
,36999,1.3615710735321045,49,,,,,,,,,,,,,,
,37049,1.3241562843322754,49,,,,,,,,,,,,,,
,37099,1.263761281967163,49,,,,,,,,,,,,,,
,37149,1.5977590084075928,49,,,,,,,,,,,,,,
,37199,1.1697124242782593,49,,,,,,,,,,,,,,
,37199,,49,1.2111608982086182,38.21249771118164,13.5393705368042,5.519737243652344,19.153390884399414,,,,,,,,,
,37199,,49,,,,,,42.919097900390625,16.866186141967773,4.925216197967529,21.12769317626953,,,,,
0.0008119331560284373,37200,,,,,,,,,,,,,,,,
,37249,1.3245103359222412,50,,,,,,,,,,,,,,
,37299,1.3847815990447998,50,,,,,,,,,,,,,,
,37349,1.3764545917510986,50,,,,,,,,,,,,,,
,37399,1.2437095642089844,50,,,,,,,,,,,,,,
,37449,1.344101905822754,50,,,,,,,,,,,,,,
,37499,1.4336563348770142,50,,,,,,,,,,,,,,
,37549,1.4495251178741455,50,,,,,,,,,,,,,,
,37599,1.3564050197601318,50,,,,,,,,,,,,,,
,37649,1.3253167867660522,50,,,,,,,,,,,,,,
,37699,1.3435872793197632,50,,,,,,,,,,,,,,
,37749,1.2828539609909058,50,,,,,,,,,,,,,,
,37799,1.2728421688079834,50,,,,,,,,,,,,,,
,37849,1.2511248588562012,50,,,,,,,,,,,,,,
,37899,1.4702260494232178,50,,,,,,,,,,,,,,
,37943,,50,1.2206063270568848,37.91023635864258,10.810698509216309,6.628953456878662,20.470584869384766,,,,,,,,,
,37943,,50,,,,,,42.721675872802734,16.477357864379883,5.036905765533447,21.207412719726562,,,,,
0.0008030921268984896,37944,,,,,,,,,,,,,,,,
,37949,1.2976632118225098,51,,,,,,,,,,,,,,
,37999,1.3585822582244873,51,,,,,,,,,,,,,,
,38049,1.2900216579437256,51,,,,,,,,,,,,,,
,38099,1.2842040061950684,51,,,,,,,,,,,,,,
,38149,1.4193143844604492,51,,,,,,,,,,,,,,
,38199,1.3116881847381592,51,,,,,,,,,,,,,,
,38249,1.2624356746673584,51,,,,,,,,,,,,,,
,38299,1.4193751811981201,51,,,,,,,,,,,,,,
,38349,1.2906644344329834,51,,,,,,,,,,,,,,
,38399,1.1889145374298096,51,,,,,,,,,,,,,,
,38449,1.3168655633926392,51,,,,,,,,,,,,,,
,38499,1.2190229892730713,51,,,,,,,,,,,,,,
,38549,1.5096518993377686,51,,,,,,,,,,,,,,
,38599,1.2497889995574951,51,,,,,,,,,,,,,,
,38649,1.287658929824829,51,,,,,,,,,,,,,,
,38687,,51,1.183745265007019,37.30710220336914,12.355281829833984,5.808133125305176,19.14368438720703,,,,,,,,,
,38687,,51,,,,,,42.44020462036133,16.447587966918945,5.003994941711426,20.98862075805664,,,,,
0.0007940987335200902,38688,,,,,,,,,,,,,,,,
,38699,1.3220951557159424,52,,,,,,,,,,,,,,
,38749,1.3814339637756348,52,,,,,,,,,,,,,,
,38799,1.186264991760254,52,,,,,,,,,,,,,,
,38849,1.139297366142273,52,,,,,,,,,,,,,,
,38899,1.2943272590637207,52,,,,,,,,,,,,,,
,38949,1.175121784210205,52,,,,,,,,,,,,,,
,38999,1.533390998840332,52,,,,,,,,,,,,,,
,39049,1.2590471506118774,52,,,,,,,,,,,,,,
,39099,1.372219443321228,52,,,,,,,,,,,,,,
,39149,1.1664659976959229,52,,,,,,,,,,,,,,
,39199,1.4525434970855713,52,,,,,,,,,,,,,,
,39249,1.4081854820251465,52,,,,,,,,,,,,,,
,39299,1.3977911472320557,52,,,,,,,,,,,,,,
,39349,1.4341105222702026,52,,,,,,,,,,,,,,
,39399,1.6023685932159424,52,,,,,,,,,,,,,,
,39431,,52,1.2024389505386353,37.03950119018555,9.908073425292969,7.028271198272705,20.10315704345703,,,,,,,,,
,39431,,52,,,,,,41.88260269165039,16.03237533569336,4.999661445617676,20.85056495666504,,,,,
0.0007849575043376416,39432,,,,,,,,,,,,,,,,
,39449,1.1855263710021973,53,,,,,,,,,,,,,,
,39499,1.569900393486023,53,,,,,,,,,,,,,,
,39549,1.3251988887786865,53,,,,,,,,,,,,,,
,39599,1.0785633325576782,53,,,,,,,,,,,,,,
,39649,1.3547784090042114,53,,,,,,,,,,,,,,
,39699,1.360464334487915,53,,,,,,,,,,,,,,
,39749,1.5412068367004395,53,,,,,,,,,,,,,,
,39799,1.2876416444778442,53,,,,,,,,,,,,,,
,39849,1.228602409362793,53,,,,,,,,,,,,,,
,39899,1.324671983718872,53,,,,,,,,,,,,,,
,39949,1.2743840217590332,53,,,,,,,,,,,,,,
,39999,1.413980484008789,53,,,,,,,,,,,,,,
,40049,1.4813168048858643,53,,,,,,,,,,,,,,
,40099,1.272557020187378,53,,,,,,,,,,,,,,
,40149,1.3726216554641724,53,,,,,,,,,,,,,,
,40175,,53,1.168431282043457,36.53480911254883,11.55109977722168,5.916281700134277,19.067426681518555,,,,,,,,,
,40175,,53,,,,,,42.12847900390625,16.18899917602539,5.034857749938965,20.90462303161621,,,,,
0.000775673042235325,40176,,,,,,,,,,,,,,,,
,40199,1.3741631507873535,54,,,,,,,,,,,,,,
,40249,1.1564970016479492,54,,,,,,,,,,,,,,
,40299,1.088611125946045,54,,,,,,,,,,,,,,
,40349,1.2322494983673096,54,,,,,,,,,,,,,,
,40399,1.3223764896392822,54,,,,,,,,,,,,,,
,40449,1.3685438632965088,54,,,,,,,,,,,,,,
,40499,1.4886839389801025,54,,,,,,,,,,,,,,
,40549,1.285435676574707,54,,,,,,,,,,,,,,
,40599,1.2361096143722534,54,,,,,,,,,,,,,,
,40649,1.170890212059021,54,,,,,,,,,,,,,,
,40699,1.121506929397583,54,,,,,,,,,,,,,,
,40749,1.1732683181762695,54,,,,,,,,,,,,,,
,40799,1.2557141780853271,54,,,,,,,,,,,,,,
,40849,1.4496667385101318,54,,,,,,,,,,,,,,
,40899,1.3837405443191528,54,,,,,,,,,,,,,,
,40919,,54,1.1704288721084595,36.34624099731445,11.007584571838379,6.258752346038818,19.079904556274414,,,,,,,,,
,40919,,54,,,,,,41.97364044189453,15.904738426208496,5.134148597717285,20.93475341796875,,,,,
0.0007662500222194103,40920,,,,,,,,,,,,,,,,
,40949,1.3389620780944824,55,,,,,,,,,,,,,,
,40999,1.3667044639587402,55,,,,,,,,,,,,,,
,41049,1.2103488445281982,55,,,,,,,,,,,,,,
,41099,1.6446524858474731,55,,,,,,,,,,,,,,
,41149,1.347078561782837,55,,,,,,,,,,,,,,
,41199,1.2720319032669067,55,,,,,,,,,,,,,,
,41249,1.3070076704025269,55,,,,,,,,,,,,,,
,41299,1.3531211614608765,55,,,,,,,,,,,,,,
,41349,1.3781296014785767,55,,,,,,,,,,,,,,
,41399,1.2752771377563477,55,,,,,,,,,,,,,,
,41449,1.4762024879455566,55,,,,,,,,,,,,,,
,41499,1.4835269451141357,55,,,,,,,,,,,,,,
,41549,1.3281850814819336,55,,,,,,,,,,,,,,
,41599,1.6433788537979126,55,,,,,,,,,,,,,,
,41649,1.3002119064331055,55,,,,,,,,,,,,,,
,41663,,55,1.1908479928970337,36.91887283325195,11.47900104522705,6.312826633453369,19.127046585083008,,,,,,,,,
,41663,,55,,,,,,42.335514068603516,16.432416915893555,5.062376976013184,20.840721130371094,,,,,
0.00075669318906425,41664,,,,,,,,,,,,,,,,
,41699,1.228844165802002,56,,,,,,,,,,,,,,
,41749,1.351934790611267,56,,,,,,,,,,,,,,
,41799,1.322831392288208,56,,,,,,,,,,,,,,
,41849,1.38807213306427,56,,,,,,,,,,,,,,
,41899,1.1639949083328247,56,,,,,,,,,,,,,,
,41949,1.1334879398345947,56,,,,,,,,,,,,,,
,41999,1.3116118907928467,56,,,,,,,,,,,,,,
,42049,1.404396414756775,56,,,,,,,,,,,,,,
,42099,1.4495545625686646,56,,,,,,,,,,,,,,
,42149,1.2823450565338135,56,,,,,,,,,,,,,,
,42199,1.2024015188217163,56,,,,,,,,,,,,,,
,42249,1.180548906326294,56,,,,,,,,,,,,,,
,42299,1.4424844980239868,56,,,,,,,,,,,,,,
,42349,1.3419275283813477,56,,,,,,,,,,,,,,
,42399,1.5352365970611572,56,,,,,,,,,,,,,,
,42407,,56,1.1787875890731812,36.4530029296875,10.599946975708008,6.570719242095947,19.282337188720703,,,,,,,,,
,42407,,56,,,,,,41.5006103515625,15.710907936096191,5.08095121383667,20.708749771118164,,,,,
0.0007470073549231411,42408,,,,,,,,,,,,,,,,
,42449,1.3279969692230225,57,,,,,,,,,,,,,,
,42499,1.3013126850128174,57,,,,,,,,,,,,,,
,42549,1.238846778869629,57,,,,,,,,,,,,,,
,42599,1.2968573570251465,57,,,,,,,,,,,,,,
,42649,1.3548527956008911,57,,,,,,,,,,,,,,
,42699,1.2239432334899902,57,,,,,,,,,,,,,,
,42749,1.244389295578003,57,,,,,,,,,,,,,,
,42799,1.304271936416626,57,,,,,,,,,,,,,,
,42849,1.3866121768951416,57,,,,,,,,,,,,,,
,42899,1.3599543571472168,57,,,,,,,,,,,,,,
,42949,1.1319668292999268,57,,,,,,,,,,,,,,
,42999,1.1936620473861694,57,,,,,,,,,,,,,,
,43049,1.1851861476898193,57,,,,,,,,,,,,,,
,43099,1.3405871391296387,57,,,,,,,,,,,,,,
,43149,1.3495631217956543,57,,,,,,,,,,,,,,
,43151,,57,1.1673238277435303,36.66791534423828,12.739348411560059,5.67780065536499,18.25076675415039,,,,,,,,,
,43151,,57,,,,,,41.23915100097656,15.440449714660645,5.168177604675293,20.630525588989258,,,,,
0.0007371973969052627,43152,,,,,,,,,,,,,,,,
,43199,1.5899516344070435,58,,,,,,,,,,,,,,
,43249,1.3154067993164062,58,,,,,,,,,,,,,,
,43299,1.239028811454773,58,,,,,,,,,,,,,,
,43349,1.491554856300354,58,,,,,,,,,,,,,,
,43399,1.3457863330841064,58,,,,,,,,,,,,,,
,43449,1.307584524154663,58,,,,,,,,,,,,,,
,43499,1.4133665561676025,58,,,,,,,,,,,,,,
,43549,1.1776766777038574,58,,,,,,,,,,,,,,
,43599,1.3888628482818604,58,,,,,,,,,,,,,,
,43649,1.357665777206421,58,,,,,,,,,,,,,,
,43699,1.3112465143203735,58,,,,,,,,,,,,,,
,43749,1.350548505783081,58,,,,,,,,,,,,,,
,43799,1.1722569465637207,58,,,,,,,,,,,,,,
,43849,1.4245009422302246,58,,,,,,,,,,,,,,
,43895,,58,1.180599331855774,36.60136032104492,10.703936576843262,6.570719242095947,19.326705932617188,,,,,,,,,
,43895,,58,,,,,,41.06570053100586,15.373730659484863,5.226004600524902,20.465967178344727,,,,,
0.0007272682546199035,43896,,,,,,,,,,,,,,,,
,43899,1.2895574569702148,59,,,,,,,,,,,,,,
,43949,1.3878856897354126,59,,,,,,,,,,,,,,
,43999,1.4540327787399292,59,,,,,,,,,,,,,,
,44049,1.1519274711608887,59,,,,,,,,,,,,,,
,44099,1.069528341293335,59,,,,,,,,,,,,,,
,44149,1.4266011714935303,59,,,,,,,,,,,,,,
,44199,1.2423690557479858,59,,,,,,,,,,,,,,
,44249,1.2955353260040283,59,,,,,,,,,,,,,,
,44299,1.1977837085723877,59,,,,,,,,,,,,,,
,44349,1.2959004640579224,59,,,,,,,,,,,,,,
,44399,1.2315022945404053,59,,,,,,,,,,,,,,
,44449,1.3266682624816895,59,,,,,,,,,,,,,,
,44499,1.4983022212982178,59,,,,,,,,,,,,,,
,44549,1.3403818607330322,59,,,,,,,,,,,,,,
,44599,1.2133644819259644,59,,,,,,,,,,,,,,
,44639,,59,1.1465637683868408,35.48382568359375,9.336827278137207,6.954785346984863,19.19221305847168,,,,,,,,,
,44639,,59,,,,,,40.9298210144043,15.27070140838623,5.1386518478393555,20.52046775817871,,,,,
0.0007172249276892202,44640,,,,,,,,,,,,,,,,
,44649,1.3680851459503174,60,,,,,,,,,,,,,,
,44699,1.3818720579147339,60,,,,,,,,,,,,,,
,44749,1.5988805294036865,60,,,,,,,,,,,,,,
,44799,1.3663924932479858,60,,,,,,,,,,,,,,
,44849,1.343183994293213,60,,,,,,,,,,,,,,
,44899,1.1747889518737793,60,,,,,,,,,,,,,,
,44949,1.466025948524475,60,,,,,,,,,,,,,,
,44999,1.2527085542678833,60,,,,,,,,,,,,,,
,45049,1.350479245185852,60,,,,,,,,,,,,,,
,45099,1.3333059549331665,60,,,,,,,,,,,,,,
,45149,1.200120210647583,60,,,,,,,,,,,,,,
,45199,1.1078789234161377,60,,,,,,,,,,,,,,
,45249,1.2849178314208984,60,,,,,,,,,,,,,,
,45299,1.170743703842163,60,,,,,,,,,,,,,,
,45349,1.3161735534667969,60,,,,,,,,,,,,,,
,45383,,60,1.1648900508880615,35.90116882324219,9.554511070251465,6.793949127197266,19.55270767211914,,,,,,,,,
,45383,,60,,,,,,40.7947998046875,15.171014785766602,5.236202239990234,20.38758087158203,,,,,
0.0007070724732307769,45384,,,,,,,,,,,,,,,,
,45399,1.3546268939971924,61,,,,,,,,,,,,,,
,45449,1.2624187469482422,61,,,,,,,,,,,,,,
,45499,1.4882307052612305,61,,,,,,,,,,,,,,
,45549,1.4342231750488281,61,,,,,,,,,,,,,,
,45599,1.3469477891921997,61,,,,,,,,,,,,,,
,45649,1.4363819360733032,61,,,,,,,,,,,,,,
,45699,1.3657156229019165,61,,,,,,,,,,,,,,
,45749,1.2600120306015015,61,,,,,,,,,,,,,,
,45799,1.3489041328430176,61,,,,,,,,,,,,,,
,45849,1.3873052597045898,61,,,,,,,,,,,,,,
,45899,1.4435079097747803,61,,,,,,,,,,,,,,
,45949,1.1321829557418823,61,,,,,,,,,,,,,,
,45999,1.4760528802871704,61,,,,,,,,,,,,,,
,46049,1.1875635385513306,61,,,,,,,,,,,,,,
,46099,1.399268388748169,61,,,,,,,,,,,,,,
,46127,,61,1.166358470916748,36.54728698730469,11.408288955688477,6.131192684173584,19.0078067779541,,,,,,,,,
,46127,,61,,,,,,40.65214920043945,14.841318130493164,5.249403953552246,20.561429977416992,,,,,
0.0006968160033111347,46128,,,,,,,,,,,,,,,,
,46149,1.5103662014007568,62,,,,,,,,,,,,,,
,46199,1.221623182296753,62,,,,,,,,,,,,,,
,46249,1.3033812046051025,62,,,,,,,,,,,,,,
,46299,1.306127905845642,62,,,,,,,,,,,,,,
,46349,1.2126797437667847,62,,,,,,,,,,,,,,
,46399,1.1826051473617554,62,,,,,,,,,,,,,,
,46449,1.314436435699463,62,,,,,,,,,,,,,,
,46499,1.190258264541626,62,,,,,,,,,,,,,,
,46549,1.1871569156646729,62,,,,,,,,,,,,,,
,46599,1.3208858966827393,62,,,,,,,,,,,,,,
,46649,1.260565996170044,62,,,,,,,,,,,,,,
,46699,1.122962236404419,62,,,,,,,,,,,,,,
,46749,1.3803988695144653,62,,,,,,,,,,,,,,
,46799,1.348881483078003,62,,,,,,,,,,,,,,
,46849,1.4665024280548096,62,,,,,,,,,,,,,,
,46871,,62,1.1392605304718018,35.49075698852539,10.014835357666016,6.548535346984863,18.927387237548828,,,,,,,,,
,46871,,62,,,,,,40.62869644165039,14.705588340759277,5.286095142364502,20.637012481689453,,,,,
0.0006864606823717715,46872,,,,,,,,,,,,,,,,
,46899,1.3364641666412354,63,,,,,,,,,,,,,,
,46949,1.3271269798278809,63,,,,,,,,,,,,,,
,46999,1.3246129751205444,63,,,,,,,,,,,,,,
,47049,1.2871887683868408,63,,,,,,,,,,,,,,
,47099,1.308153510093689,63,,,,,,,,,,,,,,
,47149,1.0997204780578613,63,,,,,,,,,,,,,,
,47199,1.1840969324111938,63,,,,,,,,,,,,,,
,47249,1.3692103624343872,63,,,,,,,,,,,,,,
,47299,1.530341386795044,63,,,,,,,,,,,,,,
,47349,1.1552157402038574,63,,,,,,,,,,,,,,
,47399,1.1021325588226318,63,,,,,,,,,,,,,,
,47449,1.3041560649871826,63,,,,,,,,,,,,,,
,47499,1.1716746091842651,63,,,,,,,,,,,,,,
,47549,1.2512950897216797,63,,,,,,,,,,,,,,
,47599,1.4228684902191162,63,,,,,,,,,,,,,,
,47615,,63,1.1323236227035522,35.5171012878418,10.254703521728516,6.437613487243652,18.824785232543945,,,,,,,,,
,47615,,63,,,,,,40.35069274902344,14.644277572631836,5.26840353012085,20.43800926208496,,,,,
0.0006760117246286306,47616,,,,,,,,,,,,,,,,
,47649,1.3657774925231934,64,,,,,,,,,,,,,,
,47699,1.366572618484497,64,,,,,,,,,,,,,,
,47749,1.0867459774017334,64,,,,,,,,,,,,,,
,47799,1.3061366081237793,64,,,,,,,,,,,,,,
,47849,1.1771705150604248,64,,,,,,,,,,,,,,
,47899,1.1066302061080933,64,,,,,,,,,,,,,,
,47949,1.2852896451950073,64,,,,,,,,,,,,,,
,47999,1.2138968706130981,64,,,,,,,,,,,,,,
,48049,1.2813959121704102,64,,,,,,,,,,,,,,
,48099,1.219897985458374,64,,,,,,,,,,,,,,
,48149,1.226941704750061,64,,,,,,,,,,,,,,
,48199,1.1164979934692383,64,,,,,,,,,,,,,,
,48249,1.1893336772918701,64,,,,,,,,,,,,,,
,48299,1.2852787971496582,64,,,,,,,,,,,,,,
,48349,1.046546459197998,64,,,,,,,,,,,,,,
,48359,,64,1.148003339767456,36.020408630371094,11.795127868652344,5.871913433074951,18.353368759155273,,,,,,,,,
,48359,,64,,,,,,40.26167297363281,14.698266983032227,5.27690315246582,20.286502838134766,,,,,
0.0006654743914466059,48360,,,,,,,,,,,,,,,,
,48399,1.3203068971633911,65,,,,,,,,,,,,,,
,48449,1.0229418277740479,65,,,,,,,,,,,,,,
,48499,1.3743536472320557,65,,,,,,,,,,,,,,
,48549,1.2970225811004639,65,,,,,,,,,,,,,,
,48599,1.1749842166900635,65,,,,,,,,,,,,,,
,48649,1.181910514831543,65,,,,,,,,,,,,,,
,48699,1.393484354019165,65,,,,,,,,,,,,,,
,48749,1.3513054847717285,65,,,,,,,,,,,,,,
,48799,1.0919510126113892,65,,,,,,,,,,,,,,
,48849,1.3264312744140625,65,,,,,,,,,,,,,,
,48899,1.1779944896697998,65,,,,,,,,,,,,,,
,48949,1.3311201333999634,65,,,,,,,,,,,,,,
,48999,1.2213966846466064,65,,,,,,,,,,,,,,
,49049,1.1869499683380127,65,,,,,,,,,,,,,,
,49099,1.299847960472107,65,,,,,,,,,,,,,,
,49103,,65,1.134092926979065,35.52958297729492,10.900822639465332,6.18388032913208,18.44487953186035,,,,,,,,,
,49103,,65,,,,,,39.914127349853516,14.326652526855469,5.310966968536377,20.276508331298828,,,,,
0.0006548539886902862,49104,,,,,,,,,,,,,,,,
,49149,0.9986885786056519,66,,,,,,,,,,,,,,
,49199,1.2357447147369385,66,,,,,,,,,,,,,,
,49249,1.4130163192749023,66,,,,,,,,,,,,,,
,49299,1.0204957723617554,66,,,,,,,,,,,,,,
,49349,1.031890869140625,66,,,,,,,,,,,,,,
,49399,1.259258508682251,66,,,,,,,,,,,,,,
,49449,1.2680983543395996,66,,,,,,,,,,,,,,
,49499,1.3453096151351929,66,,,,,,,,,,,,,,
,49549,1.2299457788467407,66,,,,,,,,,,,,,,
,49599,1.1215887069702148,66,,,,,,,,,,,,,,
,49649,1.2244642972946167,66,,,,,,,,,,,,,,
,49699,1.2471046447753906,66,,,,,,,,,,,,,,
,49749,1.30984365940094,66,,,,,,,,,,,,,,
,49799,1.291499137878418,66,,,,,,,,,,,,,,
,49847,,66,1.141628623008728,34.86543655395508,8.313575744628906,7.3610358238220215,19.190826416015625,,,,,,,,,
,49847,,66,,,,,,39.79243469238281,14.265212059020996,5.353969573974609,20.17325210571289,,,,,
0.0006441558640522925,49848,,,,,,,,,,,,,,,,
,49849,1.4945402145385742,67,,,,,,,,,,,,,,
,49899,1.493980884552002,67,,,,,,,,,,,,,,
,49949,1.1165201663970947,67,,,,,,,,,,,,,,
,49999,1.4367156028747559,67,,,,,,,,,,,,,,
,50049,1.116335391998291,67,,,,,,,,,,,,,,
,50099,1.1522307395935059,67,,,,,,,,,,,,,,
,50149,1.4866999387741089,67,,,,,,,,,,,,,,
,50199,1.2434523105621338,67,,,,,,,,,,,,,,
,50249,1.3047873973846436,67,,,,,,,,,,,,,,
,50299,1.4258792400360107,67,,,,,,,,,,,,,,
,50349,1.2061580419540405,67,,,,,,,,,,,,,,
,50399,1.2268965244293213,67,,,,,,,,,,,,,,
,50449,1.3847771883010864,67,,,,,,,,,,,,,,
,50499,1.254472255706787,67,,,,,,,,,,,,,,
,50549,1.3939850330352783,67,,,,,,,,,,,,,,
,50591,,67,1.120213508605957,34.91396713256836,9.791605949401855,6.762059211730957,18.360301971435547,,,,,,,,,
,50591,,67,,,,,,39.84280776977539,14.53930950164795,5.301697731018066,20.001800537109375,,,,,
0.000633385404360554,50592,,,,,,,,,,,,,,,,
,50599,1.271046757698059,68,,,,,,,,,,,,,,
,50649,1.5904600620269775,68,,,,,,,,,,,,,,
,50699,1.1197288036346436,68,,,,,,,,,,,,,,
,50749,1.0949785709381104,68,,,,,,,,,,,,,,
,50799,1.2663066387176514,68,,,,,,,,,,,,,,
,50849,1.2558488845825195,68,,,,,,,,,,,,,,
,50899,1.30442214012146,68,,,,,,,,,,,,,,
,50949,1.1446948051452637,68,,,,,,,,,,,,,,
,50999,1.0649521350860596,68,,,,,,,,,,,,,,
,51049,1.3983571529388428,68,,,,,,,,,,,,,,
,51099,1.260970950126648,68,,,,,,,,,,,,,,
,51149,1.4451745748519897,68,,,,,,,,,,,,,,
,51199,1.2576197385787964,68,,,,,,,,,,,,,,
,51249,1.5250401496887207,68,,,,,,,,,,,,,,
,51299,1.098097562789917,68,,,,,,,,,,,,,,
,51335,,68,1.1371493339538574,35.780540466308594,11.060272216796875,6.2199296951293945,18.50033950805664,,,,,,,,,
,51335,,68,,,,,,39.355098724365234,14.126893997192383,5.355602264404297,19.872604370117188,,,,,
0.0006225480328658779,51336,,,,,,,,,,,,,,,,
,51349,1.2115544080734253,69,,,,,,,,,,,,,,
,51399,1.292832374572754,69,,,,,,,,,,,,,,
,51449,1.0931172370910645,69,,,,,,,,,,,,,,
,51499,1.0975921154022217,69,,,,,,,,,,,,,,
,51549,1.2935205698013306,69,,,,,,,,,,,,,,
,51599,1.1776930093765259,69,,,,,,,,,,,,,,
,51649,1.0326387882232666,69,,,,,,,,,,,,,,
,51699,1.1768622398376465,69,,,,,,,,,,,,,,
,51749,1.345611333847046,69,,,,,,,,,,,,,,
,51799,1.242942214012146,69,,,,,,,,,,,,,,
,51849,1.0413401126861572,69,,,,,,,,,,,,,,
,51899,1.329052209854126,69,,,,,,,,,,,,,,
,51949,1.3759398460388184,69,,,,,,,,,,,,,,
,51999,1.143296480178833,69,,,,,,,,,,,,,,
,52049,1.2137336730957031,69,,,,,,,,,,,,,,
,52079,,69,1.1146256923675537,34.88762283325195,9.594719886779785,6.777310848236084,18.51559066772461,,,,,,,,,
,52079,,69,,,,,,39.34642028808594,14.064920425415039,5.401732921600342,19.87976837158203,,,,,
0.0006116492065111788,52080,,,,,,,,,,,,,,,,
,52099,1.2850697040557861,70,,,,,,,,,,,,,,
,52149,1.253359317779541,70,,,,,,,,,,,,,,
,52199,1.4043642282485962,70,,,,,,,,,,,,,,
,52249,1.1158989667892456,70,,,,,,,,,,,,,,
,52299,1.3048219680786133,70,,,,,,,,,,,,,,
,52349,1.2628880739212036,70,,,,,,,,,,,,,,
,52399,1.19855797290802,70,,,,,,,,,,,,,,
,52449,1.2117302417755127,70,,,,,,,,,,,,,,
,52499,1.2065849304199219,70,,,,,,,,,,,,,,
,52549,1.146782636642456,70,,,,,,,,,,,,,,
,52599,1.2617335319519043,70,,,,,,,,,,,,,,
,52649,1.2741018533706665,70,,,,,,,,,,,,,,
,52699,1.229888677597046,70,,,,,,,,,,,,,,
,52749,1.1717454195022583,70,,,,,,,,,,,,,,
,52799,1.3991854190826416,70,,,,,,,,,,,,,,
,52823,,70,1.1161493062973022,34.955562591552734,10.423859596252441,6.335011005401611,18.196691513061523,,,,,,,,,
,52823,,70,,,,,,39.510520935058594,14.135452270507812,5.322620868682861,20.052446365356445,,,,,
0.0006006944131837446,52824,,,,,,,,,,,,,,,,
,52849,1.253712773323059,71,,,,,,,,,,,,,,
,52899,1.3636832237243652,71,,,,,,,,,,,,,,
,52949,1.2493469715118408,71,,,,,,,,,,,,,,
,52999,1.0739742517471313,71,,,,,,,,,,,,,,
,53049,1.1322075128555298,71,,,,,,,,,,,,,,
,53099,1.1464507579803467,71,,,,,,,,,,,,,,
,53149,1.2562581300735474,71,,,,,,,,,,,,,,
,53199,1.2895346879959106,71,,,,,,,,,,,,,,
,53249,1.2491308450698853,71,,,,,,,,,,,,,,
,53299,1.1866652965545654,71,,,,,,,,,,,,,,
,53349,1.2604992389678955,71,,,,,,,,,,,,,,
,53399,1.2937804460525513,71,,,,,,,,,,,,,,
,53449,1.1538043022155762,71,,,,,,,,,,,,,,
,53499,1.230439305305481,71,,,,,,,,,,,,,,
,53549,1.1299946308135986,71,,,,,,,,,,,,,,
,53567,,71,1.1375519037246704,36.010704040527344,11.727188110351562,5.837250232696533,18.446266174316406,,,,,,,,,
,53567,,71,,,,,,38.88154983520508,13.74217700958252,5.443700313568115,19.69567108154297,,,,,
0.0005896891689519189,53568,,,,,,,,,,,,,,,,
,53599,1.213883638381958,72,,,,,,,,,,,,,,
,53649,1.2297124862670898,72,,,,,,,,,,,,,,
,53699,1.1173900365829468,72,,,,,,,,,,,,,,
,53749,1.1679551601409912,72,,,,,,,,,,,,,,
,53799,1.2630677223205566,72,,,,,,,,,,,,,,
,53849,1.1018964052200317,72,,,,,,,,,,,,,,
,53899,1.3709619045257568,72,,,,,,,,,,,,,,
,53949,1.0618367195129395,72,,,,,,,,,,,,,,
,53999,1.1857621669769287,72,,,,,,,,,,,,,,
,54049,1.2203737497329712,72,,,,,,,,,,,,,,
,54099,1.2460956573486328,72,,,,,,,,,,,,,,
,54149,1.1088669300079346,72,,,,,,,,,,,,,,
,54199,1.3252017498016357,72,,,,,,,,,,,,,,
,54249,1.3626048564910889,72,,,,,,,,,,,,,,
,54299,1.2540242671966553,72,,,,,,,,,,,,,,
,54311,,72,1.1101055145263672,34.546539306640625,9.845680236816406,6.402950286865234,18.29790687561035,,,,,,,,,
,54311,,72,,,,,,38.818843841552734,13.776944160461426,5.413637161254883,19.62826156616211,,,,,
0.0005786390152875952,54312,,,,,,,,,,,,,,,,
,54349,1.2396106719970703,73,,,,,,,,,,,,,,
,54399,1.1186668872833252,73,,,,,,,,,,,,,,
,54449,1.3098249435424805,73,,,,,,,,,,,,,,
,54499,1.0465936660766602,73,,,,,,,,,,,,,,
,54549,1.2383265495300293,73,,,,,,,,,,,,,,
,54599,1.1180686950683594,73,,,,,,,,,,,,,,
,54649,1.1767868995666504,73,,,,,,,,,,,,,,
,54699,1.2605701684951782,73,,,,,,,,,,,,,,
,54749,1.30549955368042,73,,,,,,,,,,,,,,
,54799,1.1099853515625,73,,,,,,,,,,,,,,
,54849,1.309038519859314,73,,,,,,,,,,,,,,
,54899,1.4079885482788086,73,,,,,,,,,,,,,,
,54949,1.427428960800171,73,,,,,,,,,,,,,,
,54999,1.2262094020843506,73,,,,,,,,,,,,,,
,55049,1.2434310913085938,73,,,,,,,,,,,,,,
,55055,,73,1.1197165250778198,34.86543655395508,9.718120574951172,6.613701820373535,18.53361701965332,,,,,,,,,
,55055,,73,,,,,,38.669334411621094,13.610764503479004,5.539822101593018,19.518749237060547,,,,,
0.0005675495162759188,55056,,,,,,,,,,,,,,,,
,55099,1.3201227188110352,74,,,,,,,,,,,,,,
,55149,1.1953930854797363,74,,,,,,,,,,,,,,
,55199,1.2268704175949097,74,,,,,,,,,,,,,,
,55249,1.2434113025665283,74,,,,,,,,,,,,,,
,55299,1.2435076236724854,74,,,,,,,,,,,,,,
,55349,1.293043613433838,74,,,,,,,,,,,,,,
,55399,1.2838056087493896,74,,,,,,,,,,,,,,
,55449,1.1299914121627808,74,,,,,,,,,,,,,,
,55499,1.193684697151184,74,,,,,,,,,,,,,,
,55549,1.1993768215179443,74,,,,,,,,,,,,,,
,55599,1.119537115097046,74,,,,,,,,,,,,,,
,55649,1.174277424812317,74,,,,,,,,,,,,,,
,55699,0.9934584498405457,74,,,,,,,,,,,,,,
,55749,1.1444940567016602,74,,,,,,,,,,,,,,
,55799,1.1861644983291626,74,,,,,,,,,,,,,,
,55799,,74,1.1083240509033203,34.29280471801758,8.746170043945312,7.068480014801025,18.4781551361084,,,,,,,,,
,55799,,74,,,,,,38.70981216430664,13.536688804626465,5.563164234161377,19.609960556030273,,,,,
0.0005564262558136021,55800,,,,,,,,,,,,,,,,
,55849,1.1866356134414673,75,,,,,,,,,,,,,,
,55899,1.339677095413208,75,,,,,,,,,,,,,,
,55949,1.2606570720672607,75,,,,,,,,,,,,,,
,55999,1.3375566005706787,75,,,,,,,,,,,,,,
,56049,1.2074992656707764,75,,,,,,,,,,,,,,
,56099,1.0791341066360474,75,,,,,,,,,,,,,,
,56149,1.194627046585083,75,,,,,,,,,,,,,,
,56199,1.0563524961471558,75,,,,,,,,,,,,,,
,56249,1.2378966808319092,75,,,,,,,,,,,,,,
,56299,1.1976449489593506,75,,,,,,,,,,,,,,
,56349,1.0103702545166016,75,,,,,,,,,,,,,,
,56399,1.2881498336791992,75,,,,,,,,,,,,,,
,56449,1.239551067352295,75,,,,,,,,,,,,,,
,56499,1.3068844079971313,75,,,,,,,,,,,,,,
,56543,,75,1.097162127494812,34.01272964477539,9.121916770935059,6.749580383300781,18.141231536865234,,,,,,,,,
,56543,,75,,,,,,38.145782470703125,13.180795669555664,5.470508098602295,19.49448013305664,,,,,
0.0005452748347972648,56544,,,,,,,,,,,,,,,,
,56549,1.2258882522583008,76,,,,,,,,,,,,,,
,56599,1.1215400695800781,76,,,,,,,,,,,,,,
,56649,1.0528953075408936,76,,,,,,,,,,,,,,
,56699,1.1239409446716309,76,,,,,,,,,,,,,,
,56749,1.0036413669586182,76,,,,,,,,,,,,,,
,56799,1.3359498977661133,76,,,,,,,,,,,,,,
,56849,1.2531880140304565,76,,,,,,,,,,,,,,
,56899,1.3248158693313599,76,,,,,,,,,,,,,,
,56949,1.1881535053253174,76,,,,,,,,,,,,,,
,56999,1.1289339065551758,76,,,,,,,,,,,,,,
,57049,1.1068145036697388,76,,,,,,,,,,,,,,
,57099,1.122141718864441,76,,,,,,,,,,,,,,
,57149,1.1884886026382446,76,,,,,,,,,,,,,,
,57199,1.1449819803237915,76,,,,,,,,,,,,,,
,57249,1.2131763696670532,76,,,,,,,,,,,,,,
,57287,,76,1.1133626699447632,34.25952911376953,8.195721626281738,7.334692001342773,18.729116439819336,,,,,,,,,
,57287,,76,,,,,,38.21476745605469,13.300148010253906,5.568979740142822,19.345640182495117,,,,,
0.0005341008683032136,57288,,,,,,,,,,,,,,,,
,57299,1.2368686199188232,77,,,,,,,,,,,,,,
,57349,1.4597443342208862,77,,,,,,,,,,,,,,
,57399,1.0070126056671143,77,,,,,,,,,,,,,,
,57449,1.323434591293335,77,,,,,,,,,,,,,,
,57499,1.060351848602295,77,,,,,,,,,,,,,,
,57549,1.1928215026855469,77,,,,,,,,,,,,,,
,57599,1.111575722694397,77,,,,,,,,,,,,,,
,57649,1.164804458618164,77,,,,,,,,,,,,,,
,57699,1.047795295715332,77,,,,,,,,,,,,,,
,57749,1.095927357673645,77,,,,,,,,,,,,,,
,57799,1.2999387979507446,77,,,,,,,,,,,,,,
,57849,1.209653615951538,77,,,,,,,,,,,,,,
,57899,1.2545723915100098,77,,,,,,,,,,,,,,
,57949,1.4001140594482422,77,,,,,,,,,,,,,,
,57999,1.1374419927597046,77,,,,,,,,,,,,,,
,58031,,77,1.1121183633804321,34.52157974243164,9.15935230255127,6.927055358886719,18.43517303466797,,,,,,,,,
,58031,,77,,,,,,38.15827560424805,13.084946632385254,5.613037586212158,19.46029281616211,,,,,
0.0005229099827600821,58032,,,,,,,,,,,,,,,,
,58049,1.2880783081054688,78,,,,,,,,,,,,,,
,58099,1.0274062156677246,78,,,,,,,,,,,,,,
,58149,1.2474262714385986,78,,,,,,,,,,,,,,
,58199,1.229079246520996,78,,,,,,,,,,,,,,
,58249,1.0991376638412476,78,,,,,,,,,,,,,,
,58299,1.3256361484527588,78,,,,,,,,,,,,,,
,58349,1.4033105373382568,78,,,,,,,,,,,,,,
,58399,1.1412901878356934,78,,,,,,,,,,,,,,
,58449,1.2246758937835693,78,,,,,,,,,,,,,,
,58499,1.20505952835083,78,,,,,,,,,,,,,,
,58549,1.3919432163238525,78,,,,,,,,,,,,,,
,58599,1.2230229377746582,78,,,,,,,,,,,,,,
,58649,0.9998889565467834,78,,,,,,,,,,,,,,
,58699,1.2854939699172974,78,,,,,,,,,,,,,,
,58749,1.112281322479248,78,,,,,,,,,,,,,,
,58775,,78,1.091316819190979,34.17079162597656,9.493504524230957,6.576265335083008,18.101022720336914,,,,,,,,,
,58775,,78,,,,,,38.07019805908203,13.020854949951172,5.540761947631836,19.508583068847656,,,,,
0.0005117078131157544,58776,,,,,,,,,,,,,,,,
,58799,1.177771806716919,79,,,,,,,,,,,,,,
,58849,1.0854227542877197,79,,,,,,,,,,,,,,
,58899,1.190375566482544,79,,,,,,,,,,,,,,
,58949,1.2565363645553589,79,,,,,,,,,,,,,,
,58999,1.1921442747116089,79,,,,,,,,,,,,,,
,59049,1.173658013343811,79,,,,,,,,,,,,,,
,59099,1.1886227130889893,79,,,,,,,,,,,,,,
,59149,1.2740607261657715,79,,,,,,,,,,,,,,
,59199,1.1912400722503662,79,,,,,,,,,,,,,,
,59249,1.4641486406326294,79,,,,,,,,,,,,,,
,59299,1.46250319480896,79,,,,,,,,,,,,,,
,59349,1.1571162939071655,79,,,,,,,,,,,,,,
,59399,1.2086695432662964,79,,,,,,,,,,,,,,
,59449,1.262804627418518,79,,,,,,,,,,,,,,
,59499,1.1604011058807373,79,,,,,,,,,,,,,,
,59519,,79,1.0828423500061035,33.738197326660156,8.858477592468262,6.737102031707764,18.14261817932129,,,,,,,,,
,59519,,79,,,,,,37.94572830200195,13.017627716064453,5.576447010040283,19.351652145385742,,,,,
0.0005004999999999998,59520,,,,,,,,,,,,,,,,
,59549,1.1433391571044922,80,,,,,,,,,,,,,,
,59599,1.223921298980713,80,,,,,,,,,,,,,,
,59649,1.4479405879974365,80,,,,,,,,,,,,,,
,59699,1.0006545782089233,80,,,,,,,,,,,,,,
,59749,1.3713419437408447,80,,,,,,,,,,,,,,
,59799,1.2296142578125,80,,,,,,,,,,,,,,
,59849,1.2601343393325806,80,,,,,,,,,,,,,,
,59899,1.00644052028656,80,,,,,,,,,,,,,,
,59949,1.134079933166504,80,,,,,,,,,,,,,,
,59999,1.3829045295715332,80,,,,,,,,,,,,,,
,60049,1.3033913373947144,80,,,,,,,,,,,,,,
,60099,1.372103214263916,80,,,,,,,,,,,,,,
,60149,1.1937710046768188,80,,,,,,,,,,,,,,
,60199,1.1963080167770386,80,,,,,,,,,,,,,,
,60249,1.0029900074005127,80,,,,,,,,,,,,,,
,60263,,80,1.090840220451355,33.69382858276367,8.012700080871582,7.269525527954102,18.411602020263672,,,,,,,,,
,60263,,80,,,,,,37.854549407958984,12.981684684753418,5.609357833862305,19.263507843017578,,,,,
0.0004892921868842453,60264,,,,,,,,,,,,,,,,
,60299,1.1291546821594238,81,,,,,,,,,,,,,,
,60349,1.0816854238510132,81,,,,,,,,,,,,,,
,60399,1.2411210536956787,81,,,,,,,,,,,,,,
,60449,1.1883981227874756,81,,,,,,,,,,,,,,
,60499,1.3329060077667236,81,,,,,,,,,,,,,,
,60549,1.1360658407211304,81,,,,,,,,,,,,,,
,60599,1.0584876537322998,81,,,,,,,,,,,,,,
,60649,1.1681592464447021,81,,,,,,,,,,,,,,
,60699,1.1065433025360107,81,,,,,,,,,,,,,,
,60749,1.0704188346862793,81,,,,,,,,,,,,,,
,60799,1.2774174213409424,81,,,,,,,,,,,,,,
,60849,1.1864266395568848,81,,,,,,,,,,,,,,
,60899,1.2468650341033936,81,,,,,,,,,,,,,,
,60949,1.338152527809143,81,,,,,,,,,,,,,,
,60999,1.212639570236206,81,,,,,,,,,,,,,,
,61007,,81,1.0876144170761108,34.33301544189453,10.748305320739746,6.103462219238281,17.481246948242188,,,,,,,,,
,61007,,81,,,,,,37.79096603393555,13.006904602050781,5.579772472381592,19.204288482666016,,,,,
0.0004780900172399177,61008,,,,,,,,,,,,,,,,
,61049,1.2322449684143066,82,,,,,,,,,,,,,,
,61099,1.2342514991760254,82,,,,,,,,,,,,,,
,61149,1.2966829538345337,82,,,,,,,,,,,,,,
,61199,1.0452516078948975,82,,,,,,,,,,,,,,
,61249,1.036224365234375,82,,,,,,,,,,,,,,
,61299,1.3381558656692505,82,,,,,,,,,,,,,,
,61349,1.1606496572494507,82,,,,,,,,,,,,,,
,61399,1.3968219757080078,82,,,,,,,,,,,,,,
,61449,1.2847886085510254,82,,,,,,,,,,,,,,
,61499,1.1221885681152344,82,,,,,,,,,,,,,,
,61549,1.3426254987716675,82,,,,,,,,,,,,,,
,61599,1.009456992149353,82,,,,,,,,,,,,,,
,61649,1.0378702878952026,82,,,,,,,,,,,,,,
,61699,1.2428433895111084,82,,,,,,,,,,,,,,
,61749,1.1813009977340698,82,,,,,,,,,,,,,,
,61751,,82,1.0840697288513184,33.673030853271484,9.361784934997559,6.574879169464111,17.736366271972656,,,,,,,,,
,61751,,82,,,,,,37.438209533691406,12.691168785095215,5.576725006103516,19.17031478881836,,,,,
0.0004668991316967861,61752,,,,,,,,,,,,,,,,
,61799,1.3347922563552856,83,,,,,,,,,,,,,,
,61849,1.3880205154418945,83,,,,,,,,,,,,,,
,61899,1.1966056823730469,83,,,,,,,,,,,,,,
,61949,1.2135754823684692,83,,,,,,,,,,,,,,
,61999,1.2877702713012695,83,,,,,,,,,,,,,,
,62049,1.2218708992004395,83,,,,,,,,,,,,,,
,62099,1.012483835220337,83,,,,,,,,,,,,,,
,62149,1.4303205013275146,83,,,,,,,,,,,,,,
,62199,1.1387465000152588,83,,,,,,,,,,,,,,
,62249,1.1213312149047852,83,,,,,,,,,,,,,,
,62299,1.1703449487686157,83,,,,,,,,,,,,,,
,62349,1.108031153678894,83,,,,,,,,,,,,,,
,62399,1.1620196104049683,83,,,,,,,,,,,,,,
,62449,1.1824274063110352,83,,,,,,,,,,,,,,
,62495,,83,1.07977294921875,33.481689453125,8.722599029541016,6.88961935043335,17.86947250366211,,,,,,,,,
,62495,,83,,,,,,37.24546813964844,12.539697647094727,5.635004997253418,19.070764541625977,,,,,
0.0004557251652027349,62496,,,,,,,,,,,,,,,,
,62499,1.1420199871063232,84,,,,,,,,,,,,,,
,62549,1.0967191457748413,84,,,,,,,,,,,,,,
,62599,1.1607944965362549,84,,,,,,,,,,,,,,
,62649,1.3488823175430298,84,,,,,,,,,,,,,,
,62699,0.9074558019638062,84,,,,,,,,,,,,,,
,62749,1.1598398685455322,84,,,,,,,,,,,,,,
,62799,1.2534958124160767,84,,,,,,,,,,,,,,
,62849,1.0589686632156372,84,,,,,,,,,,,,,,
,62899,1.2001484632492065,84,,,,,,,,,,,,,,
,62949,1.319632887840271,84,,,,,,,,,,,,,,
,62999,1.1056815385818481,84,,,,,,,,,,,,,,
,63049,1.0851043462753296,84,,,,,,,,,,,,,,
,63099,1.1432631015777588,84,,,,,,,,,,,,,,
,63149,1.0737961530685425,84,,,,,,,,,,,,,,
,63199,1.1660003662109375,84,,,,,,,,,,,,,,
,63239,,84,1.0870648622512817,34.16940689086914,10.246384620666504,6.244887351989746,17.678133010864258,,,,,,,,,
,63239,,84,,,,,,37.085304260253906,12.3143949508667,5.761229515075684,19.00967788696289,,,,,
0.0004445737441863976,63240,,,,,,,,,,,,,,,,
,63249,1.2609140872955322,85,,,,,,,,,,,,,,
,63299,1.0086137056350708,85,,,,,,,,,,,,,,
,63349,1.101007103919983,85,,,,,,,,,,,,,,
,63399,1.0872530937194824,85,,,,,,,,,,,,,,
,63449,1.1256825923919678,85,,,,,,,,,,,,,,
,63499,1.217238426208496,85,,,,,,,,,,,,,,
,63549,1.3902589082717896,85,,,,,,,,,,,,,,
,63599,1.086018443107605,85,,,,,,,,,,,,,,
,63649,1.3370884656906128,85,,,,,,,,,,,,,,
,63699,1.0242244005203247,85,,,,,,,,,,,,,,
,63749,1.2208850383758545,85,,,,,,,,,,,,,,
,63799,1.0916415452957153,85,,,,,,,,,,,,,,
,63849,1.0671639442443848,85,,,,,,,,,,,,,,
,63899,1.0852220058441162,85,,,,,,,,,,,,,,
,63949,1.1815292835235596,85,,,,,,,,,,,,,,
,63983,,85,1.0623588562011719,33.20438766479492,8.689322471618652,6.8854594230651855,17.62960433959961,,,,,,,,,
,63983,,85,,,,,,37.117523193359375,12.482992172241211,5.629211902618408,19.005319595336914,,,,,
0.000433450483724081,63984,,,,,,,,,,,,,,,,
,63999,1.2961061000823975,86,,,,,,,,,,,,,,
,64049,1.2213966846466064,86,,,,,,,,,,,,,,
,64099,1.0939933061599731,86,,,,,,,,,,,,,,
,64149,1.217484951019287,86,,,,,,,,,,,,,,
,64199,0.9726030826568604,86,,,,,,,,,,,,,,
,64249,1.0091267824172974,86,,,,,,,,,,,,,,
,64299,1.300851583480835,86,,,,,,,,,,,,,,
,64349,0.9210602641105652,86,,,,,,,,,,,,,,
,64399,0.9021544456481934,86,,,,,,,,,,,,,,
,64449,1.0517734289169312,86,,,,,,,,,,,,,,
,64499,1.0435160398483276,86,,,,,,,,,,,,,,
,64549,1.1111059188842773,86,,,,,,,,,,,,,,
,64599,1.2237048149108887,86,,,,,,,,,,,,,,
,64649,0.9967235326766968,86,,,,,,,,,,,,,,
,64699,1.1170649528503418,86,,,,,,,,,,,,,,
,64727,,86,1.0798171758651733,33.824161529541016,9.342373847961426,6.630339622497559,17.85144805908203,,,,,,,,,
,64727,,86,,,,,,36.69169616699219,12.071385383605957,5.751105785369873,18.869203567504883,,,,,
0.0004223609847124046,64728,,,,,,,,,,,,,,,,
,64749,0.9287199378013611,87,,,,,,,,,,,,,,
,64799,1.0008363723754883,87,,,,,,,,,,,,,,
,64849,1.1558749675750732,87,,,,,,,,,,,,,,
,64899,1.2809585332870483,87,,,,,,,,,,,,,,
,64949,1.1673418283462524,87,,,,,,,,,,,,,,
,64999,1.1200791597366333,87,,,,,,,,,,,,,,
,65049,1.1001465320587158,87,,,,,,,,,,,,,,
,65099,1.1209352016448975,87,,,,,,,,,,,,,,
,65149,1.3006445169448853,87,,,,,,,,,,,,,,
,65199,1.2220289707183838,87,,,,,,,,,,,,,,
,65249,1.1133348941802979,87,,,,,,,,,,,,,,
,65299,1.2958046197891235,87,,,,,,,,,,,,,,
,65349,1.065381646156311,87,,,,,,,,,,,,,,
,65399,1.2743451595306396,87,,,,,,,,,,,,,,
,65449,1.0214213132858276,87,,,,,,,,,,,,,,
,65471,,87,1.0751572847366333,33.3194694519043,8.66991138458252,6.846636772155762,17.802919387817383,,,,,,,,,
,65471,,87,,,,,,36.74081039428711,12.260275840759277,5.653350830078125,18.827184677124023,,,,,
0.0004113108310480809,65472,,,,,,,,,,,,,,,,
,65499,1.1982088088989258,88,,,,,,,,,,,,,,
,65549,1.0205063819885254,88,,,,,,,,,,,,,,
,65599,1.0867793560028076,88,,,,,,,,,,,,,,
,65649,1.3341288566589355,88,,,,,,,,,,,,,,
,65699,1.176882266998291,88,,,,,,,,,,,,,,
,65749,1.0696251392364502,88,,,,,,,,,,,,,,
,65799,0.9984174370765686,88,,,,,,,,,,,,,,
,65849,1.0281485319137573,88,,,,,,,,,,,,,,
,65899,1.1544983386993408,88,,,,,,,,,,,,,,
,65949,1.3125611543655396,88,,,,,,,,,,,,,,
,65999,1.21373450756073,88,,,,,,,,,,,,,,
,66049,1.1347520351409912,88,,,,,,,,,,,,,,
,66099,1.0658071041107178,88,,,,,,,,,,,,,,
,66149,1.1457579135894775,88,,,,,,,,,,,,,,
,66199,1.132910966873169,88,,,,,,,,,,,,,,
,66215,,88,1.0686471462249756,32.860530853271484,8.011314392089844,7.014405727386475,17.834810256958008,,,,,,,,,
,66215,,88,,,,,,36.39707946777344,12.022407531738281,5.700995922088623,18.673675537109375,,,,,
0.00040030558681625514,66216,,,,,,,,,,,,,,,,
,66249,1.0848581790924072,89,,,,,,,,,,,,,,
,66299,1.104421854019165,89,,,,,,,,,,,,,,
,66349,1.15453040599823,89,,,,,,,,,,,,,,
,66399,1.2306036949157715,89,,,,,,,,,,,,,,
,66449,1.2046387195587158,89,,,,,,,,,,,,,,
,66499,1.0810463428497314,89,,,,,,,,,,,,,,
,66549,0.8728005886077881,89,,,,,,,,,,,,,,
,66599,1.1048851013183594,89,,,,,,,,,,,,,,
,66649,1.086150884628296,89,,,,,,,,,,,,,,
,66699,1.1861599683761597,89,,,,,,,,,,,,,,
,66749,1.097780466079712,89,,,,,,,,,,,,,,
,66799,1.0003199577331543,89,,,,,,,,,,,,,,
,66849,1.225629210472107,89,,,,,,,,,,,,,,
,66899,1.2409281730651855,89,,,,,,,,,,,,,,
,66949,1.2270925045013428,89,,,,,,,,,,,,,,
,66959,,89,1.0684632062911987,33.7520637512207,9.633543014526367,6.440386772155762,17.678133010864258,,,,,,,,,
,66959,,89,,,,,,36.51573944091797,12.07752799987793,5.789151191711426,18.649057388305664,,,,,
0.0003893507934888208,66960,,,,,,,,,,,,,,,,
,66999,1.2745028734207153,90,,,,,,,,,,,,,,
,67049,1.209157109260559,90,,,,,,,,,,,,,,
,67099,1.1448673009872437,90,,,,,,,,,,,,,,
,67149,1.225145697593689,90,,,,,,,,,,,,,,
,67199,1.1430234909057617,90,,,,,,,,,,,,,,
,67249,1.1776340007781982,90,,,,,,,,,,,,,,
,67299,1.0486462116241455,90,,,,,,,,,,,,,,
,67349,1.1850173473358154,90,,,,,,,,,,,,,,
,67399,1.1946470737457275,90,,,,,,,,,,,,,,
,67449,1.245755910873413,90,,,,,,,,,,,,,,
,67499,0.9384912848472595,90,,,,,,,,,,,,,,
,67549,1.1912760734558105,90,,,,,,,,,,,,,,
,67599,1.0805296897888184,90,,,,,,,,,,,,,,
,67649,1.00804603099823,90,,,,,,,,,,,,,,
,67699,1.2645947933197021,90,,,,,,,,,,,,,,
,67703,,90,1.0548664331436157,33.014434814453125,8.933349609375,6.669162273406982,17.41192054748535,,,,,,,,,
,67703,,90,,,,,,36.41627883911133,12.077495574951172,5.763220310211182,18.5755615234375,,,,,
0.0003784519671341218,67704,,,,,,,,,,,,,,,,
,67749,1.2715380191802979,91,,,,,,,,,,,,,,
,67799,1.10005784034729,91,,,,,,,,,,,,,,
,67849,1.0886547565460205,91,,,,,,,,,,,,,,
,67899,1.2997946739196777,91,,,,,,,,,,,,,,
,67949,1.0090612173080444,91,,,,,,,,,,,,,,
,67999,1.0373543500900269,91,,,,,,,,,,,,,,
,68049,1.066601037979126,91,,,,,,,,,,,,,,
,68099,1.0287950038909912,91,,,,,,,,,,,,,,
,68149,1.2525489330291748,91,,,,,,,,,,,,,,
,68199,1.365331768989563,91,,,,,,,,,,,,,,
,68249,1.1701174974441528,91,,,,,,,,,,,,,,
,68299,1.1569509506225586,91,,,,,,,,,,,,,,
,68349,1.1753523349761963,91,,,,,,,,,,,,,,
,68399,1.122773289680481,91,,,,,,,,,,,,,,
,68447,,91,1.049083948135376,32.52360534667969,8.545124053955078,6.753740310668945,17.224740982055664,,,,,,,,,
,68447,,91,,,,,,36.165809631347656,11.813514709472656,5.728262901306152,18.62403106689453,,,,,
0.00036761459563944575,68448,,,,,,,,,,,,,,,,
,68449,1.291459083557129,92,,,,,,,,,,,,,,
,68499,1.1098291873931885,92,,,,,,,,,,,,,,
,68549,1.0125138759613037,92,,,,,,,,,,,,,,
,68599,1.1597217321395874,92,,,,,,,,,,,,,,
,68649,1.243628978729248,92,,,,,,,,,,,,,,
,68699,1.1201646327972412,92,,,,,,,,,,,,,,
,68749,1.2219598293304443,92,,,,,,,,,,,,,,
,68799,1.117393136024475,92,,,,,,,,,,,,,,
,68849,1.065859079360962,92,,,,,,,,,,,,,,
,68899,0.9600286483764648,92,,,,,,,,,,,,,,
,68949,1.1161930561065674,92,,,,,,,,,,,,,,
,68999,1.2976328134536743,92,,,,,,,,,,,,,,
,69049,0.9659919738769531,92,,,,,,,,,,,,,,
,69099,1.053018569946289,92,,,,,,,,,,,,,,
,69149,1.03572678565979,92,,,,,,,,,,,,,,
,69191,,92,1.0416735410690308,32.3128547668457,7.930895805358887,6.958945274353027,17.42301368713379,,,,,,,,,
,69191,,92,,,,,,36.019161224365234,11.833818435668945,5.780797481536865,18.4045467376709,,,,,
0.0003568441359477071,69192,,,,,,,,,,,,,,,,
,69199,1.327554702758789,93,,,,,,,,,,,,,,
,69249,1.1111886501312256,93,,,,,,,,,,,,,,
,69299,1.2425287961959839,93,,,,,,,,,,,,,,
,69349,1.0290532112121582,93,,,,,,,,,,,,,,
,69399,1.2799408435821533,93,,,,,,,,,,,,,,
,69449,1.20091712474823,93,,,,,,,,,,,,,,
,69499,1.2479372024536133,93,,,,,,,,,,,,,,
,69549,1.0184946060180664,93,,,,,,,,,,,,,,
,69599,1.1776372194290161,93,,,,,,,,,,,,,,
,69649,0.994900107383728,93,,,,,,,,,,,,,,
,69699,1.1100159883499146,93,,,,,,,,,,,,,,
,69749,1.2777099609375,93,,,,,,,,,,,,,,
,69799,1.291196584701538,93,,,,,,,,,,,,,,
,69849,1.476041316986084,93,,,,,,,,,,,,,,
,69899,1.1238183975219727,93,,,,,,,,,,,,,,
,69935,,93,1.0434006452560425,32.32117462158203,7.480276584625244,7.370741844177246,17.470155715942383,,,,,,,,,
,69935,,93,,,,,,35.803199768066406,11.578397750854492,5.864839553833008,18.359960556030273,,,,,
0.0003461460113097136,69936,,,,,,,,,,,,,,,,
,69949,1.168955683708191,94,,,,,,,,,,,,,,
,69999,1.2550935745239258,94,,,,,,,,,,,,,,
,70049,1.1746376752853394,94,,,,,,,,,,,,,,
,70099,1.2652935981750488,94,,,,,,,,,,,,,,
,70149,1.1425049304962158,94,,,,,,,,,,,,,,
,70199,1.0054371356964111,94,,,,,,,,,,,,,,
,70249,1.0869702100753784,94,,,,,,,,,,,,,,
,70299,1.1385053396224976,94,,,,,,,,,,,,,,
,70349,1.1909164190292358,94,,,,,,,,,,,,,,
,70399,1.1458632946014404,94,,,,,,,,,,,,,,
,70449,0.9182429909706116,94,,,,,,,,,,,,,,
,70499,1.1058645248413086,94,,,,,,,,,,,,,,
,70549,1.129028558731079,94,,,,,,,,,,,,,,
,70599,1.055699348449707,94,,,,,,,,,,,,,,
,70649,1.087951421737671,94,,,,,,,,,,,,,,
,70679,,94,1.0428087711334229,32.3599967956543,8.262273788452148,6.942306995391846,17.155414581298828,,,,,,,,,
,70679,,94,,,,,,35.82491683959961,11.788042068481445,5.719815254211426,18.317060470581055,,,,,
0.0003355256085533939,70680,,,,,,,,,,,,,,,,
,70699,1.2579145431518555,95,,,,,,,,,,,,,,
,70749,1.0476070642471313,95,,,,,,,,,,,,,,
,70799,0.9416289925575256,95,,,,,,,,,,,,,,
,70849,1.0506681203842163,95,,,,,,,,,,,,,,
,70899,1.103776216506958,95,,,,,,,,,,,,,,
,70949,1.1752324104309082,95,,,,,,,,,,,,,,
,70999,1.148686170578003,95,,,,,,,,,,,,,,
,71049,1.1389033794403076,95,,,,,,,,,,,,,,
,71099,1.2001972198486328,95,,,,,,,,,,,,,,
,71149,1.123679518699646,95,,,,,,,,,,,,,,
,71199,0.9608756303787231,95,,,,,,,,,,,,,,
,71249,0.9062513709068298,95,,,,,,,,,,,,,,
,71299,1.0201246738433838,95,,,,,,,,,,,,,,
,71349,1.181955099105835,95,,,,,,,,,,,,,,
,71399,1.1314667463302612,95,,,,,,,,,,,,,,
,71423,,95,1.042623519897461,32.41545867919922,8.588106155395508,6.702438831329346,17.12491226196289,,,,,,,,,
,71423,,95,,,,,,35.58744812011719,11.53939151763916,5.834346294403076,18.21371078491211,,,,,
0.0003249882753713692,71424,,,,,,,,,,,,,,,,
,71449,1.1901049613952637,96,,,,,,,,,,,,,,
,71499,1.1515862941741943,96,,,,,,,,,,,,,,
,71549,1.2659635543823242,96,,,,,,,,,,,,,,
,71599,1.2634252309799194,96,,,,,,,,,,,,,,
,71649,1.1837916374206543,96,,,,,,,,,,,,,,
,71699,0.9273425340652466,96,,,,,,,,,,,,,,
,71749,0.9032334089279175,96,,,,,,,,,,,,,,
,71799,1.4513952732086182,96,,,,,,,,,,,,,,
,71849,1.0292327404022217,96,,,,,,,,,,,,,,
,71899,1.2495932579040527,96,,,,,,,,,,,,,,
,71949,1.130165457725525,96,,,,,,,,,,,,,,
,71999,1.2185337543487549,96,,,,,,,,,,,,,,
,72049,1.016640305519104,96,,,,,,,,,,,,,,
,72099,1.0237243175506592,96,,,,,,,,,,,,,,
,72149,1.0286204814910889,96,,,,,,,,,,,,,,
,72167,,96,1.0402541160583496,32.17142868041992,8.159671783447266,6.814746856689453,17.197010040283203,,,,,,,,,
,72167,,96,,,,,,35.32767105102539,11.405924797058105,5.804901599884033,18.116846084594727,,,,,
0.00031453931762822837,72168,,,,,,,,,,,,,,,,
,72199,1.0638248920440674,97,,,,,,,,,,,,,,
,72249,1.1219069957733154,97,,,,,,,,,,,,,,
,72299,0.9865396618843079,97,,,,,,,,,,,,,,
,72349,1.129516363143921,97,,,,,,,,,,,,,,
,72399,1.1089766025543213,97,,,,,,,,,,,,,,
,72449,1.341252326965332,97,,,,,,,,,,,,,,
,72499,1.2571001052856445,97,,,,,,,,,,,,,,
,72549,1.0484310388565063,97,,,,,,,,,,,,,,
,72599,1.1589854955673218,97,,,,,,,,,,,,,,
,72649,1.2409121990203857,97,,,,,,,,,,,,,,
,72699,0.9815294742584229,97,,,,,,,,,,,,,,
,72749,1.0881459712982178,97,,,,,,,,,,,,,,
,72799,1.2011358737945557,97,,,,,,,,,,,,,,
,72849,1.1185448169708252,97,,,,,,,,,,,,,,
,72899,1.0604119300842285,97,,,,,,,,,,,,,,
,72911,,97,1.0443322658538818,32.40713882446289,8.453614234924316,6.735715389251709,17.21780776977539,,,,,,,,,
,72911,,97,,,,,,35.390193939208984,11.523544311523438,5.831789970397949,18.034860610961914,,,,,
0.0003041839966888652,72912,,,,,,,,,,,,,,,,
,72949,1.1818954944610596,98,,,,,,,,,,,,,,
,72999,1.137794017791748,98,,,,,,,,,,,,,,
,73049,1.0705721378326416,98,,,,,,,,,,,,,,
,73099,0.9966124892234802,98,,,,,,,,,,,,,,
,73149,1.0847059488296509,98,,,,,,,,,,,,,,
,73199,1.158811092376709,98,,,,,,,,,,,,,,
,73249,1.1551587581634521,98,,,,,,,,,,,,,,
,73299,1.016405463218689,98,,,,,,,,,,,,,,
,73349,0.8478478193283081,98,,,,,,,,,,,,,,
,73399,1.0566022396087646,98,,,,,,,,,,,,,,
,73449,1.0053846836090088,98,,,,,,,,,,,,,,
,73499,1.0683152675628662,98,,,,,,,,,,,,,,
,73549,1.0353327989578247,98,,,,,,,,,,,,,,
,73599,1.0394904613494873,98,,,,,,,,,,,,,,
,73649,1.0402395725250244,98,,,,,,,,,,,,,,
,73655,,98,1.037305235862732,31.883033752441406,7.530191421508789,7.190494060516357,17.1623477935791,,,,,,,,,
,73655,,98,,,,,,35.24699783325195,11.280506134033203,5.88646125793457,18.080028533935547,,,,,
0.0002939275267692228,73656,,,,,,,,,,,,,,,,
,73699,1.250882625579834,99,,,,,,,,,,,,,,
,73749,1.202629566192627,99,,,,,,,,,,,,,,
,73799,1.0476179122924805,99,,,,,,,,,,,,,,
,73849,1.039094090461731,99,,,,,,,,,,,,,,
,73899,1.0689842700958252,99,,,,,,,,,,,,,,
,73949,0.9040740132331848,99,,,,,,,,,,,,,,
,73999,1.0193047523498535,99,,,,,,,,,,,,,,
,74049,1.1028010845184326,99,,,,,,,,,,,,,,
,74099,1.1243683099746704,99,,,,,,,,,,,,,,
,74149,0.9609026908874512,99,,,,,,,,,,,,,,
,74199,1.2440683841705322,99,,,,,,,,,,,,,,
,74249,1.0748200416564941,99,,,,,,,,,,,,,,
,74299,1.0814895629882812,99,,,,,,,,,,,,,,
,74349,0.9579248428344727,99,,,,,,,,,,,,,,
,74399,1.2850456237792969,99,,,,,,,,,,,,,,
,74399,,99,1.0328364372253418,32.09794235229492,8.360716819763184,6.750967025756836,16.98625946044922,,,,,,,,,
,74399,,99,,,,,,34.99258041381836,11.090826988220215,5.909560203552246,17.99219512939453,,,,,
0.00028377507231077965,74400,,,,,,,,,,,,,,,,
,74449,1.0511788129806519,100,,,,,,,,,,,,,,
,74499,1.1365877389907837,100,,,,,,,,,,,,,,
,74549,1.2297606468200684,100,,,,,,,,,,,,,,
,74599,1.0127689838409424,100,,,,,,,,,,,,,,
,74649,1.1961174011230469,100,,,,,,,,,,,,,,
,74699,1.2301381826400757,100,,,,,,,,,,,,,,
,74749,1.068780541419983,100,,,,,,,,,,,,,,
,74799,1.0431113243103027,100,,,,,,,,,,,,,,
,74849,1.308497428894043,100,,,,,,,,,,,,,,
,74899,1.1186583042144775,100,,,,,,,,,,,,,,
,74949,1.1889654397964478,100,,,,,,,,,,,,,,
,74999,1.0498344898223877,100,,,,,,,,,,,,,,
,75049,1.0693424940109253,100,,,,,,,,,,,,,,
,75099,1.1035668849945068,100,,,,,,,,,,,,,,
,75143,,100,1.0361249446868896,31.96761131286621,7.510780334472656,7.20435905456543,17.252471923828125,,,,,,,,,
,75143,,100,,,,,,34.98813247680664,11.076004981994629,5.9518632888793945,17.960262298583984,,,,,
0.0002737317453800963,75144,,,,,,,,,,,,,,,,
,75149,1.0695465803146362,101,,,,,,,,,,,,,,
,75199,1.3030998706817627,101,,,,,,,,,,,,,,
,75249,1.1114287376403809,101,,,,,,,,,,,,,,
,75299,0.9860255718231201,101,,,,,,,,,,,,,,
,75349,0.9454046487808228,101,,,,,,,,,,,,,,
,75399,1.064508318901062,101,,,,,,,,,,,,,,
,75449,0.9064188003540039,101,,,,,,,,,,,,,,
,75499,0.941057562828064,101,,,,,,,,,,,,,,
,75549,1.155571699142456,101,,,,,,,,,,,,,,
,75599,1.121873140335083,101,,,,,,,,,,,,,,
,75649,1.0317217111587524,101,,,,,,,,,,,,,,
,75699,1.0283229351043701,101,,,,,,,,,,,,,,
,75749,1.1396653652191162,101,,,,,,,,,,,,,,
,75799,0.9786081314086914,101,,,,,,,,,,,,,,
,75849,0.9527621865272522,101,,,,,,,,,,,,,,
,75887,,101,1.0308064222335815,32.006431579589844,8.001607894897461,7.025497913360596,16.979326248168945,,,,,,,,,
,75887,,101,,,,,,34.741050720214844,11.078798294067383,5.930699348449707,17.731552124023438,,,,,
0.00026380260309473707,75888,,,,,,,,,,,,,,,,
,75899,1.139782190322876,102,,,,,,,,,,,,,,
,75949,1.1423311233520508,102,,,,,,,,,,,,,,
,75999,0.9536032676696777,102,,,,,,,,,,,,,,
,76049,1.2401165962219238,102,,,,,,,,,,,,,,
,76099,1.1425527334213257,102,,,,,,,,,,,,,,
,76149,1.4453260898590088,102,,,,,,,,,,,,,,
,76199,1.116653323173523,102,,,,,,,,,,,,,,
,76249,0.9476083517074585,102,,,,,,,,,,,,,,
,76299,0.793651282787323,102,,,,,,,,,,,,,,
,76349,1.192251443862915,102,,,,,,,,,,,,,,
,76399,1.0991684198379517,102,,,,,,,,,,,,,,
,76449,1.0462288856506348,102,,,,,,,,,,,,,,
,76499,1.0090346336364746,102,,,,,,,,,,,,,,
,76549,1.208323359489441,102,,,,,,,,,,,,,,
,76599,0.958526074886322,102,,,,,,,,,,,,,,
,76631,,102,1.041109323501587,32.15617752075195,8.511847496032715,6.6192474365234375,17.025081634521484,,,,,,,,,
,76631,,102,,,,,,34.683013916015625,11.088187217712402,5.854691505432129,17.74013328552246,,,,,
0.0002539926450768586,76632,,,,,,,,,,,,,,,,
,76649,0.9425346851348877,103,,,,,,,,,,,,,,
,76699,1.1559176445007324,103,,,,,,,,,,,,,,
,76749,0.7780417203903198,103,,,,,,,,,,,,,,
,76799,1.03673255443573,103,,,,,,,,,,,,,,
,76849,0.8819264769554138,103,,,,,,,,,,,,,,
,76899,1.136927843093872,103,,,,,,,,,,,,,,
,76949,1.2103221416473389,103,,,,,,,,,,,,,,
,76999,1.193141222000122,103,,,,,,,,,,,,,,
,77049,1.061966896057129,103,,,,,,,,,,,,,,
,77099,1.102573275566101,103,,,,,,,,,,,,,,
,77149,1.0123250484466553,103,,,,,,,,,,,,,,
,77199,1.2192509174346924,103,,,,,,,,,,,,,,
,77249,1.0643091201782227,103,,,,,,,,,,,,,,
,77299,1.0777308940887451,103,,,,,,,,,,,,,,
,77349,0.9641402959823608,103,,,,,,,,,,,,,,
,77375,,103,1.0295960903167725,31.931560516357422,8.048749923706055,6.891005516052246,16.991806030273438,,,,,,,,,
,77375,,103,,,,,,34.653377532958984,10.912260055541992,5.966609954833984,17.774505615234375,,,,,
0.00024430681093574983,77376,,,,,,,,,,,,,,,,
,77399,1.1350969076156616,104,,,,,,,,,,,,,,
,77449,1.3672548532485962,104,,,,,,,,,,,,,,
,77499,1.0160605907440186,104,,,,,,,,,,,,,,
,77549,1.0964661836624146,104,,,,,,,,,,,,,,
,77599,0.8987114429473877,104,,,,,,,,,,,,,,
,77649,1.0221494436264038,104,,,,,,,,,,,,,,
,77699,1.0625756978988647,104,,,,,,,,,,,,,,
,77749,1.0274972915649414,104,,,,,,,,,,,,,,
,77799,0.9760261178016663,104,,,,,,,,,,,,,,
,77849,1.1784778833389282,104,,,,,,,,,,,,,,
,77899,1.1081981658935547,104,,,,,,,,,,,,,,
,77949,1.0462422370910645,104,,,,,,,,,,,,,,
,77999,1.0628422498703003,104,,,,,,,,,,,,,,
,78049,1.1950358152389526,104,,,,,,,,,,,,,,
,78099,1.1426773071289062,104,,,,,,,,,,,,,,
,78119,,104,1.0278815031051636,31.512832641601562,7.067093849182129,7.433135032653809,17.012603759765625,,,,,,,,,
,78119,,104,,,,,,34.71013259887695,10.997640609741211,5.920145034790039,17.792348861694336,,,,,
0.00023474997778058935,78120,,,,,,,,,,,,,,,,
,78149,1.0651841163635254,105,,,,,,,,,,,,,,
,78199,1.0524922609329224,105,,,,,,,,,,,,,,
,78249,1.0827288627624512,105,,,,,,,,,,,,,,
,78299,1.0613343715667725,105,,,,,,,,,,,,,,
,78349,0.9237504005432129,105,,,,,,,,,,,,,,
,78399,1.1411957740783691,105,,,,,,,,,,,,,,
,78449,1.1414668560028076,105,,,,,,,,,,,,,,
,78499,1.0571866035461426,105,,,,,,,,,,,,,,
,78549,1.079075574874878,105,,,,,,,,,,,,,,
,78599,1.1230149269104004,105,,,,,,,,,,,,,,
,78649,0.9087074398994446,105,,,,,,,,,,,,,,
,78699,1.055187463760376,105,,,,,,,,,,,,,,
,78749,0.9523433446884155,105,,,,,,,,,,,,,,
,78799,1.0318315029144287,105,,,,,,,,,,,,,,
,78849,1.0188204050064087,105,,,,,,,,,,,,,,
,78863,,105,1.0426721572875977,32.540245056152344,8.496596336364746,6.8022685050964355,17.241378784179688,,,,,,,,,
,78863,,105,,,,,,34.34555435180664,10.666254043579102,5.929425239562988,17.7498779296875,,,,,
0.00022532695776467476,78864,,,,,,,,,,,,,,,,
,78899,1.1774113178253174,106,,,,,,,,,,,,,,
,78949,1.057349681854248,106,,,,,,,,,,,,,,
,78999,1.13906991481781,106,,,,,,,,,,,,,,
,79049,1.1659832000732422,106,,,,,,,,,,,,,,
,79099,1.0402363538742065,106,,,,,,,,,,,,,,
,79149,1.2112454175949097,106,,,,,,,,,,,,,,
,79199,1.1303335428237915,106,,,,,,,,,,,,,,
,79249,1.0345697402954102,106,,,,,,,,,,,,,,
,79299,0.8997613191604614,106,,,,,,,,,,,,,,
,79349,1.0639591217041016,106,,,,,,,,,,,,,,
,79399,1.1022214889526367,106,,,,,,,,,,,,,,
,79449,1.0646402835845947,106,,,,,,,,,,,,,,
,79499,1.0201810598373413,106,,,,,,,,,,,,,,
,79549,1.1729717254638672,106,,,,,,,,,,,,,,
,79599,1.1007542610168457,106,,,,,,,,,,,,,,
,79607,,106,1.0232709646224976,31.468463897705078,6.933987617492676,7.460865497589111,17.073610305786133,,,,,,,,,
,79607,,106,,,,,,34.43278503417969,10.891829490661621,5.9302754402160645,17.610681533813477,,,,,
0.00021604249566235817,79608,,,,,,,,,,,,,,,,
,79649,1.03860342502594,107,,,,,,,,,,,,,,
,79699,0.9383531808853149,107,,,,,,,,,,,,,,
,79749,0.9740426540374756,107,,,,,,,,,,,,,,
,79799,1.0059200525283813,107,,,,,,,,,,,,,,
,79849,1.126033067703247,107,,,,,,,,,,,,,,
,79899,1.051973581314087,107,,,,,,,,,,,,,,
,79949,1.027130126953125,107,,,,,,,,,,,,,,
,79999,1.0643072128295898,107,,,,,,,,,,,,,,
,80049,0.8363465070724487,107,,,,,,,,,,,,,,
,80099,1.0898455381393433,107,,,,,,,,,,,,,,
,80149,1.0455236434936523,107,,,,,,,,,,,,,,
,80199,1.3920650482177734,107,,,,,,,,,,,,,,
,80249,0.9463095664978027,107,,,,,,,,,,,,,,
,80299,1.0453546047210693,107,,,,,,,,,,,,,,
,80349,1.0273487567901611,107,,,,,,,,,,,,,,
,80351,,107,1.0192755460739136,31.393590927124023,7.050455570220947,7.2584333419799805,17.08470344543457,,,,,,,,,
,80351,,107,,,,,,34.162017822265625,10.670450210571289,5.9769744873046875,17.51459312438965,,,,,
0.00020690126647990965,80352,,,,,,,,,,,,,,,,
,80399,1.2530930042266846,108,,,,,,,,,,,,,,
,80449,0.9210920333862305,108,,,,,,,,,,,,,,
,80499,1.103956937789917,108,,,,,,,,,,,,,,
,80549,0.990002453327179,108,,,,,,,,,,,,,,
,80599,1.0748707056045532,108,,,,,,,,,,,,,,
,80649,1.109371304512024,108,,,,,,,,,,,,,,
,80699,1.107243299484253,108,,,,,,,,,,,,,,
,80749,1.2715473175048828,108,,,,,,,,,,,,,,
,80799,0.9637914896011353,108,,,,,,,,,,,,,,
,80849,0.9994934797286987,108,,,,,,,,,,,,,,
,80899,0.9818981885910034,108,,,,,,,,,,,,,,
,80949,1.0120360851287842,108,,,,,,,,,,,,,,
,80999,1.1778552532196045,108,,,,,,,,,,,,,,
,81049,1.0628342628479004,108,,,,,,,,,,,,,,
,81095,,108,1.0122013092041016,31.313173294067383,7.329145908355713,7.190494060516357,16.793533325195312,,,,,,,,,
,81095,,108,,,,,,34.03252410888672,10.626859664916992,5.978413105010986,17.4272518157959,,,,,
0.00019790787310151043,81096,,,,,,,,,,,,,,,,
,81099,0.904167890548706,109,,,,,,,,,,,,,,
,81149,1.226825475692749,109,,,,,,,,,,,,,,
,81199,0.9033903479576111,109,,,,,,,,,,,,,,
,81249,1.2147718667984009,109,,,,,,,,,,,,,,
,81299,1.2430660724639893,109,,,,,,,,,,,,,,
,81349,1.166686773300171,109,,,,,,,,,,,,,,
,81399,1.088179588317871,109,,,,,,,,,,,,,,
,81449,1.11545991897583,109,,,,,,,,,,,,,,
,81499,1.138915777206421,109,,,,,,,,,,,,,,
,81549,1.0669490098953247,109,,,,,,,,,,,,,,
,81599,1.1984329223632812,109,,,,,,,,,,,,,,
,81649,1.1601881980895996,109,,,,,,,,,,,,,,
,81699,1.1769911050796509,109,,,,,,,,,,,,,,
,81749,1.0201715230941772,109,,,,,,,,,,,,,,
,81799,1.0254127979278564,109,,,,,,,,,,,,,,
,81839,,109,1.0150011777877808,31.403297424316406,7.844931602478027,6.8785271644592285,16.679838180541992,,,,,,,,,
,81839,,109,,,,,,33.9439697265625,10.63841438293457,6.012092590332031,17.2934627532959,,,,,
0.00018906684397156255,81840,,,,,,,,,,,,,,,,
,81849,0.9743542671203613,110,,,,,,,,,,,,,,
,81899,1.0349576473236084,110,,,,,,,,,,,,,,
,81949,1.300501823425293,110,,,,,,,,,,,,,,
,81999,1.0918338298797607,110,,,,,,,,,,,,,,
,82049,1.276524543762207,110,,,,,,,,,,,,,,
,82099,1.1657524108886719,110,,,,,,,,,,,,,,
,82149,1.1569149494171143,110,,,,,,,,,,,,,,
,82199,1.1834912300109863,110,,,,,,,,,,,,,,
,82249,1.120816946029663,110,,,,,,,,,,,,,,
,82299,1.0026358366012573,110,,,,,,,,,,,,,,
,82349,1.051755666732788,110,,,,,,,,,,,,,,
,82399,1.0467958450317383,110,,,,,,,,,,,,,,
,82449,1.059648871421814,110,,,,,,,,,,,,,,
,82499,1.1006147861480713,110,,,,,,,,,,,,,,
,82549,0.9808298349380493,110,,,,,,,,,,,,,,
,82583,,110,1.015173077583313,31.30624008178711,7.59813117980957,6.922895431518555,16.785213470458984,,,,,,,,,
,82583,,110,,,,,,34.07596206665039,10.661090850830078,5.975477695465088,17.439393997192383,,,,,
0.00018038263081448039,82584,,,,,,,,,,,,,,,,
,82599,0.7648715376853943,111,,,,,,,,,,,,,,
,82649,0.9381524920463562,111,,,,,,,,,,,,,,
,82699,1.0323160886764526,111,,,,,,,,,,,,,,
,82749,1.0391626358032227,111,,,,,,,,,,,,,,
,82799,1.0634093284606934,111,,,,,,,,,,,,,,
,82849,1.2179410457611084,111,,,,,,,,,,,,,,
,82899,1.13046395778656,111,,,,,,,,,,,,,,
,82949,1.0849473476409912,111,,,,,,,,,,,,,,
,82999,0.9166324138641357,111,,,,,,,,,,,,,,
,83049,0.9867655038833618,111,,,,,,,,,,,,,,
,83099,1.228111982345581,111,,,,,,,,,,,,,,
,83149,1.027906894683838,111,,,,,,,,,,,,,,
,83199,0.9888076782226562,111,,,,,,,,,,,,,,
,83249,1.0679229497909546,111,,,,,,,,,,,,,,
,83299,1.0500836372375488,111,,,,,,,,,,,,,,
,83327,,111,1.0138180255889893,31.249393463134766,7.5898118019104,6.982515811920166,16.677064895629883,,,,,,,,,
,83327,,111,,,,,,33.7620735168457,10.51858139038086,6.036952495574951,17.206539154052734,,,,,
0.0001718596063931135,83328,,,,,,,,,,,,,,,,
,83349,1.3117172718048096,112,,,,,,,,,,,,,,
,83399,1.0344982147216797,112,,,,,,,,,,,,,,
,83449,0.9899661540985107,112,,,,,,,,,,,,,,
,83499,1.0423669815063477,112,,,,,,,,,,,,,,
,83549,1.011807918548584,112,,,,,,,,,,,,,,
,83599,0.9571627378463745,112,,,,,,,,,,,,,,
,83649,1.1492295265197754,112,,,,,,,,,,,,,,
,83699,0.9918291568756104,112,,,,,,,,,,,,,,
,83749,1.0018353462219238,112,,,,,,,,,,,,,,
,83799,1.0557270050048828,112,,,,,,,,,,,,,,
,83849,1.0339250564575195,112,,,,,,,,,,,,,,
,83899,1.1392368078231812,112,,,,,,,,,,,,,,
,83949,1.1849154233932495,112,,,,,,,,,,,,,,
,83999,1.1405558586120605,112,,,,,,,,,,,,,,
,84049,1.1771001815795898,112,,,,,,,,,,,,,,
,84071,,112,1.0115960836410522,31.13153839111328,7.215451240539551,7.207132339477539,16.708955764770508,,,,,,,,,
,84071,,112,,,,,,33.578311920166016,10.369659423828125,5.982272624969482,17.226381301879883,,,,,
0.00016350206230692882,84072,,,,,,,,,,,,,,,,
,84099,1.0589869022369385,113,,,,,,,,,,,,,,
,84149,1.0216805934906006,113,,,,,,,,,,,,,,
,84199,1.0394889116287231,113,,,,,,,,,,,,,,
,84249,0.9114919304847717,113,,,,,,,,,,,,,,
,84299,1.27047598361969,113,,,,,,,,,,,,,,
,84349,1.0998350381851196,113,,,,,,,,,,,,,,
,84399,1.0833740234375,113,,,,,,,,,,,,,,
,84449,1.1514904499053955,113,,,,,,,,,,,,,,
,84499,1.2416129112243652,113,,,,,,,,,,,,,,
,84549,1.039515733718872,113,,,,,,,,,,,,,,
,84599,1.0640275478363037,113,,,,,,,,,,,,,,
,84649,1.0416470766067505,113,,,,,,,,,,,,,,
,84699,0.9494131207466125,113,,,,,,,,,,,,,,
,84749,0.9935939311981201,113,,,,,,,,,,,,,,
,84799,1.0226351022720337,113,,,,,,,,,,,,,,
,84815,,113,1.0152838230133057,31.363088607788086,7.92119026184082,6.866048336029053,16.575849533081055,,,,,,,,,
,84815,,113,,,,,,33.58903503417969,10.30053424835205,6.028380393981934,17.260120391845703,,,,,
0.00015531420683106105,84816,,,,,,,,,,,,,,,,
,84849,1.0899884700775146,114,,,,,,,,,,,,,,
,84899,1.0364078283309937,114,,,,,,,,,,,,,,
,84949,0.9164657592773438,114,,,,,,,,,,,,,,
,84999,0.8489102125167847,114,,,,,,,,,,,,,,
,85049,1.0625208616256714,114,,,,,,,,,,,,,,
,85099,0.9497864246368408,114,,,,,,,,,,,,,,
,85149,1.4325053691864014,114,,,,,,,,,,,,,,
,85199,1.1526769399642944,114,,,,,,,,,,,,,,
,85249,1.1078097820281982,114,,,,,,,,,,,,,,
,85299,1.1664419174194336,114,,,,,,,,,,,,,,
,85349,1.2069672346115112,114,,,,,,,,,,,,,,
,85399,1.1166671514511108,114,,,,,,,,,,,,,,
,85449,0.8798933029174805,114,,,,,,,,,,,,,,
,85499,1.048038125038147,114,,,,,,,,,,,,,,
,85549,1.1026356220245361,114,,,,,,,,,,,,,,
,85559,,114,1.006873369216919,31.083011627197266,7.910098075866699,6.755126476287842,16.41778564453125,,,,,,,,,
,85559,,114,,,,,,33.49997329711914,10.402708053588867,5.98779821395874,17.109468460083008,,,,,
0.0001473001627973195,85560,,,,,,,,,,,,,,,,
,85599,0.9733355045318604,115,,,,,,,,,,,,,,
,85649,1.1511590480804443,115,,,,,,,,,,,,,,
,85699,0.9881418943405151,115,,,,,,,,,,,,,,
,85749,1.1887807846069336,115,,,,,,,,,,,,,,
,85799,1.108197808265686,115,,,,,,,,,,,,,,
,85849,1.0261818170547485,115,,,,,,,,,,,,,,
,85899,1.0660512447357178,115,,,,,,,,,,,,,,
,85949,1.0818134546279907,115,,,,,,,,,,,,,,
,85999,1.005340576171875,115,,,,,,,,,,,,,,
,86049,0.9865556955337524,115,,,,,,,,,,,,,,
,86099,0.9457496404647827,115,,,,,,,,,,,,,,
,86149,0.8889511823654175,115,,,,,,,,,,,,,,
,86199,0.9957804083824158,115,,,,,,,,,,,,,,
,86249,1.2634737491607666,115,,,,,,,,,,,,,,
,86299,0.930366039276123,115,,,,,,,,,,,,,,
,86303,,115,1.004430890083313,31.022003173828125,7.574560165405273,6.946466445922852,16.5009765625,,,,,,,,,
,86303,,115,,,,,,33.46009826660156,10.30494213104248,6.042396545410156,17.11275863647461,,,,,
0.0001394639655182179,86304,,,,,,,,,,,,,,,,
,86349,1.1054837703704834,116,,,,,,,,,,,,,,
,86399,1.2338507175445557,116,,,,,,,,,,,,,,
,86449,0.8969923853874207,116,,,,,,,,,,,,,,
,86499,1.065496802330017,116,,,,,,,,,,,,,,
,86549,1.0201784372329712,116,,,,,,,,,,,,,,
,86599,1.018337607383728,116,,,,,,,,,,,,,,
,86649,1.1542305946350098,116,,,,,,,,,,,,,,
,86699,1.1734615564346313,116,,,,,,,,,,,,,,
,86749,1.226835012435913,116,,,,,,,,,,,,,,
,86799,0.9825019240379333,116,,,,,,,,,,,,,,
,86849,1.022276759147644,116,,,,,,,,,,,,,,
,86899,1.0313405990600586,116,,,,,,,,,,,,,,
,86949,1.0231590270996094,116,,,,,,,,,,,,,,
,86999,0.9605070948600769,116,,,,,,,,,,,,,,
,87047,,116,1.001430869102478,30.944358825683594,7.890686511993408,6.69827938079834,16.355392456054688,,,,,,,,,
,87047,,116,,,,,,33.510066986083984,10.292580604553223,6.070603847503662,17.146883010864258,,,,,
0.00013180956075507333,87048,,,,,,,,,,,,,,,,
,87049,0.9988591074943542,117,,,,,,,,,,,,,,
,87099,1.0576164722442627,117,,,,,,,,,,,,,,
,87149,1.1455650329589844,117,,,,,,,,,,,,,,
,87199,1.2705789804458618,117,,,,,,,,,,,,,,
,87249,0.9401311874389648,117,,,,,,,,,,,,,,
,87299,0.9946371912956238,117,,,,,,,,,,,,,,
,87349,1.1035804748535156,117,,,,,,,,,,,,,,
,87399,0.858420729637146,117,,,,,,,,,,,,,,
,87449,1.3553211688995361,117,,,,,,,,,,,,,,
,87499,1.1077141761779785,117,,,,,,,,,,,,,,
,87549,0.9250404834747314,117,,,,,,,,,,,,,,
,87599,1.128605604171753,117,,,,,,,,,,,,,,
,87649,1.0199801921844482,117,,,,,,,,,,,,,,
,87699,1.0368307828903198,117,,,,,,,,,,,,,,
,87749,1.2260093688964844,117,,,,,,,,,,,,,,
,87791,,117,1.000435471534729,30.81957244873047,7.329145908355713,7.076799392700195,16.41362762451172,,,,,,,,,
,87791,,117,,,,,,33.11485290527344,10.214605331420898,6.029109954833984,16.871137619018555,,,,,
0.0001243408027311963,87792,,,,,,,,,,,,,,,,
,87799,0.8234680891036987,118,,,,,,,,,,,,,,
,87849,0.9655765295028687,118,,,,,,,,,,,,,,
,87899,1.336487889289856,118,,,,,,,,,,,,,,
,87949,1.0346945524215698,118,,,,,,,,,,,,,,
,87999,1.1302160024642944,118,,,,,,,,,,,,,,
,88049,1.0397675037384033,118,,,,,,,,,,,,,,
,88099,1.1031546592712402,118,,,,,,,,,,,,,,
,88149,1.0324472188949585,118,,,,,,,,,,,,,,
,88199,1.062897801399231,118,,,,,,,,,,,,,,
,88249,1.1463477611541748,118,,,,,,,,,,,,,,
,88299,0.9501329064369202,118,,,,,,,,,,,,,,
,88349,1.0654605627059937,118,,,,,,,,,,,,,,
,88399,1.053078293800354,118,,,,,,,,,,,,,,
,88449,1.0280957221984863,118,,,,,,,,,,,,,,
,88499,0.8808927536010742,118,,,,,,,,,,,,,,
,88535,,118,1.005135416984558,31.01368522644043,7.408177852630615,6.992221832275391,16.613285064697266,,,,,,,,,
,88535,,118,,,,,,33.38956832885742,10.157119750976562,6.1515583992004395,17.080888748168945,,,,,
0.00011706145219117339,88536,,,,,,,,,,,,,,,,
,88549,1.1019206047058105,119,,,,,,,,,,,,,,
,88599,1.1417572498321533,119,,,,,,,,,,,,,,
,88649,1.1574865579605103,119,,,,,,,,,,,,,,
,88699,1.0978889465332031,119,,,,,,,,,,,,,,
,88749,1.029555320739746,119,,,,,,,,,,,,,,
,88799,0.9185622930526733,119,,,,,,,,,,,,,,
,88849,0.9997152090072632,119,,,,,,,,,,,,,,
,88899,1.2499934434890747,119,,,,,,,,,,,,,,
,88949,0.9458185434341431,119,,,,,,,,,,,,,,
,88999,0.8967317342758179,119,,,,,,,,,,,,,,
,89049,1.0006427764892578,119,,,,,,,,,,,,,,
,89099,0.8896712064743042,119,,,,,,,,,,,,,,
,89149,0.9498310685157776,119,,,,,,,,,,,,,,
,89199,0.916696310043335,119,,,,,,,,,,,,,,
,89249,1.0134472846984863,119,,,,,,,,,,,,,,
,89279,,119,1.0016998052597046,30.911083221435547,7.520485877990723,6.945079803466797,16.44551658630371,,,,,,,,,
,89279,,119,,,,,,33.11429977416992,10.189213752746582,6.042605400085449,16.882482528686523,,,,,
0.00010997517450721906,89280,,,,,,,,,,,,,,,,
,89299,0.9933452010154724,120,,,,,,,,,,,,,,
,89349,1.099783182144165,120,,,,,,,,,,,,,,
,89399,0.9521934986114502,120,,,,,,,,,,,,,,
,89449,0.9226520657539368,120,,,,,,,,,,,,,,
,89499,0.9557742476463318,120,,,,,,,,,,,,,,
,89549,0.9671614766120911,120,,,,,,,,,,,,,,
,89599,1.1692907810211182,120,,,,,,,,,,,,,,
,89649,1.0003114938735962,120,,,,,,,,,,,,,,
,89699,1.1517553329467773,120,,,,,,,,,,,,,,
,89749,0.8709729909896851,120,,,,,,,,,,,,,,
,89799,1.1563498973846436,120,,,,,,,,,,,,,,
,89849,0.8911632299423218,120,,,,,,,,,,,,,,
,89899,1.1410151720046997,120,,,,,,,,,,,,,,
,89949,1.0246365070343018,120,,,,,,,,,,,,,,
,89999,1.027367115020752,120,,,,,,,,,,,,,,
,90023,,120,1.0029127597808838,30.85423469543457,6.997767925262451,7.300029277801514,16.556438446044922,,,,,,,,,
,90023,,120,,,,,,32.851558685302734,10.094423294067383,5.977109432220459,16.780025482177734,,,,,
0.00010308553783355038,90024,,,,,,,,,,,,,,,,
,90049,0.9853183031082153,121,,,,,,,,,,,,,,
,90099,1.1718875169754028,121,,,,,,,,,,,,,,
,90149,1.248022437095642,121,,,,,,,,,,,,,,
,90199,1.063690185546875,121,,,,,,,,,,,,,,
,90249,1.1167653799057007,121,,,,,,,,,,,,,,
,90299,1.0460602045059204,121,,,,,,,,,,,,,,
,90349,1.2570536136627197,121,,,,,,,,,,,,,,
,90399,1.0261034965515137,121,,,,,,,,,,,,,,
,90449,0.9155699014663696,121,,,,,,,,,,,,,,
,90499,1.0455467700958252,121,,,,,,,,,,,,,,
,90549,1.1732583045959473,121,,,,,,,,,,,,,,
,90599,0.9711244702339172,121,,,,,,,,,,,,,,
,90649,0.9593467116355896,121,,,,,,,,,,,,,,
,90699,0.9451018571853638,121,,,,,,,,,,,,,,
,90749,0.9367507100105286,121,,,,,,,,,,,,,,
,90767,,121,0.9977173209190369,30.77936363220215,7.548216342926025,6.98667573928833,16.244470596313477,,,,,,,,,
,90767,,121,,,,,,32.94295883178711,9.979697227478027,6.0589752197265625,16.904285430908203,,,,,
9.639601130971376e-05,90768,,,,,,,,,,,,,,,,
,90799,1.1870054006576538,122,,,,,,,,,,,,,,
,90849,0.7976208925247192,122,,,,,,,,,,,,,,
,90899,1.0531055927276611,122,,,,,,,,,,,,,,
,90949,1.0986047983169556,122,,,,,,,,,,,,,,
,90999,0.9330123662948608,122,,,,,,,,,,,,,,
,91049,1.0705163478851318,122,,,,,,,,,,,,,,
,91099,0.9942140579223633,122,,,,,,,,,,,,,,
,91149,1.0053073167800903,122,,,,,,,,,,,,,,
,91199,1.1834354400634766,122,,,,,,,,,,,,,,
,91249,1.067543625831604,122,,,,,,,,,,,,,,
,91299,1.4470343589782715,122,,,,,,,,,,,,,,
,91349,1.0141481161117554,122,,,,,,,,,,,,,,
,91399,0.8487812280654907,122,,,,,,,,,,,,,,
,91449,0.8123939633369446,122,,,,,,,,,,,,,,
,91499,0.951612114906311,122,,,,,,,,,,,,,,
,91511,,122,0.9974835515022278,30.721128463745117,7.219611167907715,7.03520393371582,16.4663143157959,,,,,,,,,
,91511,,122,,,,,,32.86420440673828,9.919568061828613,6.086310386657715,16.85832405090332,,,,,
8.9909963313769e-05,91512,,,,,,,,,,,,,,,,
,91549,1.0274862051010132,123,,,,,,,,,,,,,,
,91599,1.0457117557525635,123,,,,,,,,,,,,,,
,91649,1.092869520187378,123,,,,,,,,,,,,,,
,91699,1.268864631652832,123,,,,,,,,,,,,,,
,91749,1.0376566648483276,123,,,,,,,,,,,,,,
,91799,1.0129115581512451,123,,,,,,,,,,,,,,
,91849,1.3985745906829834,123,,,,,,,,,,,,,,
,91899,1.117567777633667,123,,,,,,,,,,,,,,
,91949,1.0275330543518066,123,,,,,,,,,,,,,,
,91999,0.9266988635063171,123,,,,,,,,,,,,,,
,92049,1.2390985488891602,123,,,,,,,,,,,,,,
,92099,1.0406006574630737,123,,,,,,,,,,,,,,
,92149,0.9891002178192139,123,,,,,,,,,,,,,,
,92199,0.9547691345214844,123,,,,,,,,,,,,,,
,92249,1.126121997833252,123,,,,,,,,,,,,,,
,92255,,123,0.9989178776741028,30.753019332885742,7.178015232086182,7.092051029205322,16.482952117919922,,,,,,,,,
,92255,,123,,,,,,32.84906005859375,9.798462867736816,6.197704792022705,16.85289192199707,,,,,
8.363065976620929e-05,92256,,,,,,,,,,,,,,,,
,92299,0.8476876616477966,124,,,,,,,,,,,,,,
,92349,0.9751277565956116,124,,,,,,,,,,,,,,
,92399,1.1206711530685425,124,,,,,,,,,,,,,,
,92449,1.1523382663726807,124,,,,,,,,,,,,,,
,92499,0.8967533707618713,124,,,,,,,,,,,,,,
,92549,0.8587946891784668,124,,,,,,,,,,,,,,
,92599,1.133857250213623,124,,,,,,,,,,,,,,
,92649,1.0948330163955688,124,,,,,,,,,,,,,,
,92699,1.0660851001739502,124,,,,,,,,,,,,,,
,92749,1.055269718170166,124,,,,,,,,,,,,,,
,92799,1.014897346496582,124,,,,,,,,,,,,,,
,92849,1.0455913543701172,124,,,,,,,,,,,,,,
,92899,1.1262508630752563,124,,,,,,,,,,,,,,
,92949,0.9015801548957825,124,,,,,,,,,,,,,,
,92999,0.9618464708328247,124,,,,,,,,,,,,,,
,92999,,124,0.9988162517547607,30.707263946533203,7.076799392700195,7.157217502593994,16.473247528076172,,,,,,,,,
,92999,,124,,,,,,32.78010559082031,9.998710632324219,6.042741298675537,16.7386531829834,,,,,
7.756126248547204e-05,93000,,,,,,,,,,,,,,,,
,93049,0.920289933681488,125,,,,,,,,,,,,,,
,93099,0.9949458837509155,125,,,,,,,,,,,,,,
,93149,0.9658043384552002,125,,,,,,,,,,,,,,
,93199,1.000756859779358,125,,,,,,,,,,,,,,
,93249,0.9824638366699219,125,,,,,,,,,,,,,,
,93299,0.9114269018173218,125,,,,,,,,,,,,,,
,93349,1.1256957054138184,125,,,,,,,,,,,,,,
,93399,1.2693809270858765,125,,,,,,,,,,,,,,
,93449,1.0892608165740967,125,,,,,,,,,,,,,,
,93499,1.030510425567627,125,,,,,,,,,,,,,,
,93549,1.1079970598220825,125,,,,,,,,,,,,,,
,93599,1.1804131269454956,125,,,,,,,,,,,,,,
,93649,1.0455548763275146,125,,,,,,,,,,,,,,
,93699,0.8958227634429932,125,,,,,,,,,,,,,,
,93743,,125,0.9922815561294556,30.486806869506836,7.194653511047363,7.003314018249512,16.28883934020996,,,,,,,,,
,93743,,125,,,,,,32.73500442504883,9.795337677001953,6.14019250869751,16.79947280883789,,,,,
7.170482759586784e-05,93744,,,,,,,,,,,,,,,,
,93749,0.8981068730354309,126,,,,,,,,,,,,,,
,93799,1.1181647777557373,126,,,,,,,,,,,,,,
,93849,0.947014570236206,126,,,,,,,,,,,,,,
,93899,0.9278750419616699,126,,,,,,,,,,,,,,
,93949,0.9194822311401367,126,,,,,,,,,,,,,,
,93999,1.0376973152160645,126,,,,,,,,,,,,,,
,94049,1.1884688138961792,126,,,,,,,,,,,,,,
,94099,0.990540623664856,126,,,,,,,,,,,,,,
,94149,1.075602412223816,126,,,,,,,,,,,,,,
,94199,0.8749831914901733,126,,,,,,,,,,,,,,
,94249,1.1191906929016113,126,,,,,,,,,,,,,,
,94299,1.320460557937622,126,,,,,,,,,,,,,,
,94349,1.1348990201950073,126,,,,,,,,,,,,,,
,94399,1.0108050107955933,126,,,,,,,,,,,,,,
,94449,0.9779621362686157,126,,,,,,,,,,,,,,
,94487,,126,0.9934855699539185,30.51869773864746,6.9007110595703125,7.275071620941162,16.342914581298828,,,,,,,,,
,94487,,126,,,,,,32.629390716552734,9.887879371643066,6.0649824142456055,16.676530838012695,,,,,
6.606430398873014e-05,94488,,,,,,,,,,,,,,,,
,94499,0.9510036706924438,127,,,,,,,,,,,,,,
,94549,1.122037410736084,127,,,,,,,,,,,,,,
,94599,1.0825458765029907,127,,,,,,,,,,,,,,
,94649,0.8024584054946899,127,,,,,,,,,,,,,,
,94699,1.0800915956497192,127,,,,,,,,,,,,,,
,94749,0.9590151906013489,127,,,,,,,,,,,,,,
,94799,0.7979047894477844,127,,,,,,,,,,,,,,
,94849,0.8378264904022217,127,,,,,,,,,,,,,,
,94899,0.9385216236114502,127,,,,,,,,,,,,,,
,94949,0.8047394156455994,127,,,,,,,,,,,,,,
,94999,1.1407747268676758,127,,,,,,,,,,,,,,
,95049,0.8048854470252991,127,,,,,,,,,,,,,,
,95099,1.179825782775879,127,,,,,,,,,,,,,,
,95149,0.9281400442123413,127,,,,,,,,,,,,,,
,95199,1.109388828277588,127,,,,,,,,,,,,,,
,95231,,127,0.9974022507667542,30.68507957458496,7.363809108734131,6.964491367340088,16.356779098510742,,,,,,,,,
,95231,,127,,,,,,32.43453598022461,9.753334999084473,6.013140678405762,16.668060302734375,,,,,
6.064253183755934e-05,95232,,,,,,,,,,,,,,,,
,95249,0.7673430442810059,128,,,,,,,,,,,,,,
,95299,1.0461647510528564,128,,,,,,,,,,,,,,
,95349,0.9502974152565002,128,,,,,,,,,,,,,,
,95399,1.001623272895813,128,,,,,,,,,,,,,,
,95449,1.0447654724121094,128,,,,,,,,,,,,,,
,95499,1.0321216583251953,128,,,,,,,,,,,,,,
,95549,1.0707454681396484,128,,,,,,,,,,,,,,
,95599,0.9790427684783936,128,,,,,,,,,,,,,,
,95649,1.1418266296386719,128,,,,,,,,,,,,,,
,95699,1.009760856628418,128,,,,,,,,,,,,,,
,95749,0.9049989581108093,128,,,,,,,,,,,,,,
,95799,0.9799370765686035,128,,,,,,,,,,,,,,
,95849,0.8978297710418701,128,,,,,,,,,,,,,,
,95899,1.0015431642532349,128,,,,,,,,,,,,,,
,95949,0.9791067838668823,128,,,,,,,,,,,,,,
,95975,,128,0.9921383857727051,30.597728729248047,7.094824314117432,7.062933921813965,16.439970016479492,,,,,,,,,
,95975,,128,,,,,,32.34269332885742,9.720438957214355,6.049052715301514,16.573200225830078,,,,,
5.544224116791026e-05,95976,,,,,,,,,,,,,,,,
,95999,1.0238432884216309,129,,,,,,,,,,,,,,
,96049,0.9170546531677246,129,,,,,,,,,,,,,,
,96099,1.0604777336120605,129,,,,,,,,,,,,,,
,96149,1.15267014503479,129,,,,,,,,,,,,,,
,96199,0.8373825550079346,129,,,,,,,,,,,,,,
,96249,0.9483503699302673,129,,,,,,,,,,,,,,
,96299,1.1229069232940674,129,,,,,,,,,,,,,,
,96349,1.218476414680481,129,,,,,,,,,,,,,,
,96399,0.9861710667610168,129,,,,,,,,,,,,,,
,96449,1.0908021926879883,129,,,,,,,,,,,,,,
,96499,0.9950817227363586,129,,,,,,,,,,,,,,
,96549,0.9248862266540527,129,,,,,,,,,,,,,,
,96599,1.0243902206420898,129,,,,,,,,,,,,,,
,96649,0.8427243232727051,129,,,,,,,,,,,,,,
,96699,1.0405035018920898,129,,,,,,,,,,,,,,
,96719,,129,0.9895310997962952,30.48542022705078,7.286163806915283,7.025497913360596,16.17375946044922,,,,,,,,,
,96719,,129,,,,,,32.469608306884766,9.771186828613281,6.07828950881958,16.62013053894043,,,,,
5.0466050482741666e-05,96720,,,,,,,,,,,,,,,,
,96749,1.0401743650436401,130,,,,,,,,,,,,,,
,96799,1.0064460039138794,130,,,,,,,,,,,,,,
,96849,1.0581483840942383,130,,,,,,,,,,,,,,
,96899,1.2086724042892456,130,,,,,,,,,,,,,,
,96949,1.0237822532653809,130,,,,,,,,,,,,,,
,96999,0.8888024687767029,130,,,,,,,,,,,,,,
,97049,0.8970498442649841,130,,,,,,,,,,,,,,
,97099,1.0619794130325317,130,,,,,,,,,,,,,,
,97149,0.9969428181648254,130,,,,,,,,,,,,,,
,97199,1.0095603466033936,130,,,,,,,,,,,,,,
,97249,0.9080581665039062,130,,,,,,,,,,,,,,
,97299,1.007361888885498,130,,,,,,,,,,,,,,
,97349,0.9751085042953491,130,,,,,,,,,,,,,,
,97399,1.032758355140686,130,,,,,,,,,,,,,,
,97449,0.9523068070411682,130,,,,,,,,,,,,,,
,97463,,130,0.9889650344848633,30.320425033569336,7.111462593078613,7.076799392700195,16.132164001464844,,,,,,,,,
,97463,,130,,,,,,32.301734924316406,9.762171745300293,6.1119489669799805,16.427614212036133,,,,,
4.5716465443921456e-05,97464,,,,,,,,,,,,,,,,
,97499,0.9624607563018799,131,,,,,,,,,,,,,,
,97549,0.9790689945220947,131,,,,,,,,,,,,,,
,97599,0.9296392798423767,131,,,,,,,,,,,,,,
,97649,1.0371687412261963,131,,,,,,,,,,,,,,
,97699,0.879294753074646,131,,,,,,,,,,,,,,
,97749,0.9969316720962524,131,,,,,,,,,,,,,,
,97799,0.9384903907775879,131,,,,,,,,,,,,,,
,97849,1.0746492147445679,131,,,,,,,,,,,,,,
,97899,0.8812851905822754,131,,,,,,,,,,,,,,
,97949,1.1325231790542603,131,,,,,,,,,,,,,,
,97999,0.7918025255203247,131,,,,,,,,,,,,,,
,98049,1.0018596649169922,131,,,,,,,,,,,,,,
,98099,0.9270548820495605,131,,,,,,,,,,,,,,
,98149,1.0991625785827637,131,,,,,,,,,,,,,,
,98199,1.0397775173187256,131,,,,,,,,,,,,,,
,98207,,131,0.9895741939544678,30.338449478149414,6.726009845733643,7.259819984436035,16.352619171142578,,,,,,,,,
,98207,,131,,,,,,32.331398010253906,9.706151008605957,6.131455421447754,16.493789672851562,,,,,
4.1195877610550415e-05,98208,,,,,,,,,,,,,,,,
,98249,0.9370713233947754,132,,,,,,,,,,,,,,
,98299,1.0389859676361084,132,,,,,,,,,,,,,,
,98349,0.9118914604187012,132,,,,,,,,,,,,,,
,98399,1.0128120183944702,132,,,,,,,,,,,,,,
,98449,0.9292933940887451,132,,,,,,,,,,,,,,
,98499,1.077512264251709,132,,,,,,,,,,,,,,
,98549,0.8164857625961304,132,,,,,,,,,,,,,,
,98599,0.9900169372558594,132,,,,,,,,,,,,,,
,98649,0.9764940738677979,132,,,,,,,,,,,,,,
,98699,0.9536781907081604,132,,,,,,,,,,,,,,
,98749,0.9496368169784546,132,,,,,,,,,,,,,,
,98799,0.9042903184890747,132,,,,,,,,,,,,,,
,98849,1.032688856124878,132,,,,,,,,,,,,,,
,98899,1.1258721351623535,132,,,,,,,,,,,,,,
,98949,1.0604417324066162,132,,,,,,,,,,,,,,
,98951,,132,0.9888529777526855,30.416093826293945,6.748194217681885,7.290323257446289,16.37757682800293,,,,,,,,,
,98951,,132,,,,,,32.28919219970703,9.712154388427734,6.197485446929932,16.379552841186523,,,,,
3.690656323474008e-05,98952,,,,,,,,,,,,,,,,
,98999,0.9515537023544312,133,,,,,,,,,,,,,,
